0,1,2,3,4,5,6,7,8,9,10,11
-0.00090743206,0.086692266,0.059583247,-0.03671737,-0.043123312,0.06973357,-0.029459663,-0.07914022,-0.0047076684,0.002076246,-0.023350637,0.038562354
-0.007340512,0.063042715,0.04789705,-0.014683906,-0.025855698,0.04705527,-0.013819898,-0.12000773,-0.06083912,-0.029316965,-0.040613286,0.013106609
-0.01588934,0.09830311,0.07790066,-0.048390124,-0.05531796,0.08570949,-0.010884842,-0.0969308,-0.049324352,0.0018448152,-0.031311978,0.014903157
0.023051074,0.10994255,0.056887172,-0.08279993,-0.035168096,0.06890403,-0.021168353,-0.10425955,-0.0731909,0.014374533,-0.036767755,0.014597069
0.021553624,0.17381926,0.07917115,-0.11389765,-0.038245387,0.114911236,-0.05885282,-0.12302504,-0.0851407,-0.009034898,-0.051667746,0.004750406
0.050501578,0.15147601,0.055722445,-0.1348566,-0.009253664,0.0882273,-0.039670765,-0.08709413,-0.0544097,0.008051352,-0.06705341,-0.0164793
0.076684,0.25070477,0.07133843,-0.1991045,0.002500237,0.16304109,-0.021749435,-0.07561772,-0.0053143674,-0.026311507,-0.075422294,0.0036515635
-0.0234886,0.12424327,0.10346297,-0.0652074,-0.09811947,0.15436333,-0.05333751,-0.11626897,-0.0932856,-0.22336532,-0.1930866,-0.044481542
0.0070144017,-0.3416469,-0.2909739,0.18422192,0.2910349,-0.37391242,0.05025847,0.25223503,0.1644234,-0.095412664,-0.09521058,0.039346818
0.21404895,-0.41540596,-0.410402,0.15656678,0.4371671,-0.41516623,0.06321893,0.23334779,0.36654034,0.18644774,0.08222679,0.08897687
0.57572377,-0.51598984,-0.74409974,-0.035296876,0.7321886,-0.6572881,-0.116576634,0.41726568,0.5795444,0.5220198,0.37203744,0.27080256
0.60758483,-0.8645887,-0.8896687,0.24844174,0.8242422,-0.9173199,-0.7384161,-0.5548031,-0.6035196,-0.5386753,-0.22961885,-0.06827531
0.5887922,-0.7078022,-0.7575092,0.10370386,0.73398364,-0.7514578,-0.75865006,-0.6324679,-0.7448255,-0.59268665,-0.19122258,0.03781997
0.691581,-0.39100045,-0.6415578,-0.2207811,0.7647712,-0.5928912,-0.54388773,-0.2293935,-0.23533222,-0.20168692,0.10195251,0.07309878
0.48445776,-0.43776777,-0.56147635,-0.021217236,0.5898775,-0.56689584,-0.2618042,-0.09097141,-0.23825051,-0.42961454,-0.33629447,-0.38118085
0.15423122,-0.05919129,-0.1447408,-0.023077259,0.1881541,-0.12268936,-0.10842439,-0.10859377,-0.091326125,-0.27571255,-0.32318288,-0.29316348
-0.19259635,0.11125413,0.19277678,0.102801204,-0.18792908,0.21486789,0.13529925,-0.024274705,-0.026831795,-0.21471144,-0.37301284,-0.34239188
-0.21735328,0.28708333,0.29475653,-0.022129474,-0.32694831,0.35291913,0.14203212,0.027036365,0.013983519,-0.1174958,-0.3378054,-0.31932878
-0.2546394,0.37680084,0.40112436,-0.05074878,-0.3774097,0.47148186,0.10623394,-0.02753889,-0.03510198,-0.17848256,-0.37536734,-0.41850215
-0.2730091,0.44232997,0.46459332,-0.087407745,-0.4366597,0.5238133,0.08139551,-0.06129327,-0.07018169,-0.14209187,-0.38247716,-0.4130709
-0.31568837,0.4276615,0.4714448,-0.051415037,-0.4472432,0.5006389,0.10805586,-0.09980301,-0.04852642,-0.10616113,-0.38632882,-0.39495477
-0.3397162,0.46852133,0.51127136,-0.06465426,-0.46925154,0.5486737,0.0870322,-0.092387445,-0.048730664,-0.07748357,-0.3772538,-0.37154543
-0.35554022,0.47958136,0.5386878,-0.060746446,-0.5312978,0.5622995,0.12057571,-0.039532457,-0.011767958,-0.06848881,-0.38935304,-0.3422778
-0.3150892,0.48981634,0.49894568,-0.08660583,-0.5019611,0.533515,0.09291133,0.009988553,0.012715314,-0.042623732,-0.35725418,-0.30694652
-0.22282945,0.51440006,0.47317296,-0.16032623,-0.44394335,0.5175225,0.047889695,0.041829497,0.012310632,-0.03399587,-0.28018537,-0.21718232
-0.16741133,0.49763307,0.41191795,-0.18890925,-0.38243777,0.46631688,0.010451968,0.02824076,0.003825709,-0.013254444,-0.19389242,-0.14304596
-0.11890294,0.39386806,0.33116996,-0.1536574,-0.3129085,0.36293945,0.016997842,0.01158224,-0.0054026577,-0.0076124356,-0.14013289,-0.10391771
-0.07382596,0.26524198,0.1785195,-0.09882462,-0.19134724,0.20831823,0.021013582,-0.010301166,-0.007307463,-0.01714029,-0.09632598,-0.10611565
-0.053668816,0.16388164,0.118446656,-0.056882456,-0.10904182,0.11846134,0.025607128,0.0018209013,-0.0136062335,-0.033370323,-0.10423081,-0.09213004
-0.026439825,0.100750074,0.07043564,-0.034158334,-0.06092668,0.06308358,0.03474203,0.0029788823,-0.0079535935,-0.034910038,-0.08288538,-0.08188805
-0.019155726,0.09031398,0.06580665,-0.038752332,-0.05856233,0.057772584,0.025988964,0.006127668,0.0036569445,-0.024215924,-0.07136208,-0.049210817
-0.005635146,0.0754921,0.046980377,-0.036252916,-0.04735639,0.053498007,0.025206802,-0.002047141,0.0053906403,-0.023933258,-0.059752733,-0.04138989
-0.018004755,0.09578837,0.060604006,-0.052212227,-0.058429,0.06631093,0.0023910282,-0.011700942,-0.008556234,-0.025476871,-0.050519887,-0.020269511
-0.009614697,0.11621135,0.07381787,-0.07062309,-0.054445192,0.09567549,-0.017721755,-0.018333407,-0.008975021,-0.017841855,-0.026610555,-0.0047642193
-0.011615667,0.16240662,0.10113998,-0.09425489,-0.078257635,0.12581322,-0.10394322,-0.048586953,-0.034502074,-0.031487662,-0.0186736,0.023654426
0.011659757,0.15173723,0.068165295,-0.09693913,-0.049211513,0.09098303,-0.1313938,-0.053253982,-0.033456802,-0.027131625,-0.029891668,0.018581972
0.015972363,0.16112374,0.082333736,-0.118658915,-0.05481022,0.10744657,-0.15141091,-0.053170513,-0.024791237,0.008684268,-0.0070465757,0.045892563
0.030671708,0.10853579,0.044924416,-0.09567783,-0.024652528,0.051777415,-0.13528353,-0.027177867,-0.015228508,0.014760551,-0.03018851,0.031357404
0.010302872,0.101732515,0.055282217,-0.08023655,-0.041790426,0.06344481,-0.14245275,-0.030972809,-0.0039507495,0.015465066,-0.031912625,0.04011715
0.0028390174,0.04509311,0.040852215,-0.03331492,-0.03093755,0.029176958,-0.09607259,-0.013208858,0.015802784,0.0021322109,-0.054426998,0.008607475
-0.022077844,0.045122117,0.056539048,-0.021433154,-0.04338788,0.036582887,-0.098402455,-0.011580296,0.013943972,0.003896084,-0.04981066,0.0058621373
0.008981773,-0.0020541335,0.0014338596,-0.009637386,0.019862916,-0.024953932,-0.07791322,-0.004492439,0.018768448,-0.008689967,-0.0854963,-0.019918399
0.01104133,-0.0014766407,-0.0004911422,-0.01036894,0.023279946,-0.019538987,-0.08054685,-0.004407996,0.0011456974,-0.005303341,-0.073609404,-0.010838568
-0.012100363,-0.033749588,0.0016806445,0.027230596,0.0014739915,-0.02698127,-0.04525804,-0.00543814,0.014017702,-0.006533412,-0.08507272,-0.02835423
-0.02564972,-0.004371101,0.036634296,0.017474124,-0.03853927,0.010862513,-0.014902548,0.014666482,0.0214863,0.009161287,-0.043927815,0.0034213567
0.015260626,0.010448277,0.01391597,-0.0102123255,-0.000792655,0.013611062,0.0037325616,0.037583604,0.048624538,0.015179161,-0.03927935,0.017711107
0.0035339112,0.047423735,0.039168477,-0.031665348,-0.027596973,0.041373473,-0.0019475477,0.024162438,0.018069847,0.00988544,-0.0047732247,0.028737629
0.024277152,0.04471088,0.011625176,-0.044486117,-0.008365624,0.033201996,0.015785538,0.038439374,0.0023985722,0.00837121,-0.01660688,0.02413734
0.02925581,0.16083857,0.05673019,-0.11932895,-0.04366814,0.11766717,0.012911969,0.03972247,0.028361902,0.03996426,0.038430355,0.06267638
0.09653247,0.107524335,-0.0025967823,-0.13364062,0.04785597,0.048058484,-0.01375701,0.06820128,-0.007445537,0.006626151,0.028516766,0.07798857
0.076358125,0.1839929,0.03666024,-0.16448708,-0.025486717,0.094745934,-0.031244105,0.059053574,-0.014147731,-0.01705844,0.01152241,0.16262686
-0.0010218691,-0.10922946,-0.066683136,0.021619614,0.09049166,-0.10573574,0.014952916,0.10968296,-0.023847312,-0.07048928,0.018472942,0.20029634
0.10343674,-0.2994831,-0.29253826,0.09322595,0.33505931,-0.3455913,0.13384305,0.28412968,0.17380172,0.03807998,0.122489795,0.23405895
0.23715241,-0.3392327,-0.3847113,0.066396005,0.44725654,-0.3564558,0.12690541,0.3073009,0.33113688,0.22483304,0.29575264,0.34548974
0.6345475,-0.54135394,-0.7579659,-0.07337554,0.7997284,-0.7208526,-0.14587283,0.36203814,0.5267617,0.47599274,0.5813253,0.5763711
0.7261281,-0.7637763,-0.8632803,-0.02390789,0.8255724,-0.8722034,-0.7001083,-0.56723523,-0.27102938,0.18557303,0.5177804,0.5276312
0.66895103,-0.7779362,-0.83879066,0.046892628,0.7762516,-0.85426986,-0.63047194,-0.6014936,-0.43838462,0.11131586,0.53811145,0.5782509
0.6964017,-0.5178358,-0.7438543,-0.1753024,0.7612467,-0.69521874,-0.5340752,-0.41417068,-0.22413737,0.157199,0.4211444,0.3982316
0.3855937,-0.34160557,-0.46336848,-5.8059697e-05,0.42054775,-0.44884822,-0.22241135,-0.1879054,-0.028825697,-0.102671586,-0.054671466,-0.093953386
-0.013029147,0.0011511366,0.025567342,0.02637158,-0.031907056,0.051907685,-0.09015759,-0.017378533,-0.023546822,-0.03244724,-0.08392883,-0.11543891
-0.20444973,0.12242426,0.19132662,0.064221464,-0.21286233,0.2041597,0.07917828,0.06680791,0.018754037,-0.032816872,-0.1829035,-0.23465638
-0.25860643,0.25562966,0.35965842,0.0236254,-0.36947268,0.38737798,0.1031516,0.08885395,0.054981012,-0.052473817,-0.20425978,-0.24716619
-0.26143685,0.29329017,0.37493238,0.0062313383,-0.39391586,0.43937176,0.041430555,0.04809795,0.052340947,-0.1005121,-0.15540196,-0.3124572
-0.23553833,0.3247565,0.3458258,-0.03268611,-0.34817818,0.4532033,0.0015946855,-0.06871177,-0.012817467,-0.15302584,-0.20468885,-0.3401992
-0.21052791,0.35794652,0.37619978,-0.0796484,-0.36665073,0.46282092,0.09362109,-0.016504394,0.01038048,-0.08725171,-0.22361258,-0.30348247
-0.21354419,0.36958653,0.38108048,-0.07195575,-0.36819506,0.47297475,0.13960752,0.06194658,0.011543107,-0.03487359,-0.27150157,-0.31785476
-0.23752798,0.36803073,0.41818443,-0.066810384,-0.39509055,0.46937922,0.23208697,0.18790141,0.096132986,0.07290244,-0.2692376,-0.31856632
-0.23568146,0.40525255,0.4601119,-0.066168964,-0.41979724,0.4962124,0.2514532,0.18205234,0.07513035,0.06469081,-0.22363599,-0.34565616
-0.08770581,0.36197576,0.25876582,-0.13909002,-0.21526554,0.33597407,0.22038263,0.20301151,0.09286341,0.15121065,-0.08101965,-0.2989722
-0.059688468,0.32493532,0.22553532,-0.13944677,-0.17270282,0.29372674,0.19398357,0.18792516,0.10889764,0.15016185,0.012825246,-0.22722955
-0.05433133,0.2622749,0.17112797,-0.100883305,-0.14155366,0.21386842,0.13043737,0.18756348,0.06387939,0.12843585,0.0627599,-0.189404
-0.04267451,0.15754843,0.07105602,-0.069985904,-0.0842789,0.10130763,0.0646844,0.18656322,0.09317102,0.18601958,0.13990743,-0.16371752
-0.049466353,0.11412965,0.06167194,-0.050235335,-0.05704938,0.08399354,0.032798253,0.15375371,0.07465261,0.20041934,0.22275533,-0.11136152
0.009668715,0.09020888,0.0030864715,-0.070004284,0.014005455,0.03310601,0.013812848,0.1478522,0.096587546,0.2245122,0.29374143,-0.08053636
0.024601769,0.06862081,-0.01171935,-0.0545861,0.025806889,0.005473695,-0.0004110634,0.13183597,0.09249989,0.1909036,0.3235357,-0.06049878
0.03246938,0.07684869,-0.008281291,-0.06905221,0.026795654,0.016845534,0.007928766,0.13023822,0.076491944,0.17403619,0.34984133,-0.036664378
0.002177261,0.06732348,0.017490394,-0.051848013,-0.0047607934,0.015968006,0.016744085,0.088357046,0.032700624,0.10813983,0.3154555,-0.049086053
-0.0021522944,0.088875376,0.030595263,-0.059302777,-0.004508101,0.03967915,0.010530293,0.055499174,0.0035935522,0.08297307,0.31357953,-0.044718333
0.016610567,0.07895798,0.04379048,-0.06760992,0.004784185,0.030481644,-0.00092482724,0.045362163,0.008046327,0.08394864,0.32897618,-0.038792644
0.03584302,0.07005884,0.019462425,-0.07908412,0.022350118,0.019419834,-0.01239552,0.03756394,0.018516924,0.09442664,0.3294746,-0.042082354
0.047819275,0.080614194,0.017277936,-0.0833833,0.027969716,0.022990204,-0.024082301,0.031340104,0.0358117,0.13808827,0.34335104,-0.024166377
0.06907907,0.06335613,-0.020048922,-0.0922089,0.05961918,-0.0045993226,-0.037488572,0.03089518,0.039140034,0.16496105,0.3595899,-0.03003765
0.07556109,0.038076557,-0.01831047,-0.071000986,0.07296197,-0.02485152,-0.014688129,0.019216364,0.03948209,0.13672367,0.3315168,-0.056111
0.07699959,0.029029004,-0.037184197,-0.07233365,0.086562395,-0.025693301,-0.010663645,0.036190536,0.046124335,0.1313893,0.33524755,-0.055553712
0.07104266,-0.016144892,-0.053141616,-0.04353611,0.09960981,-0.050729726,0.001224439,0.022164736,0.022183897,0.09159323,0.2951802,-0.059022103
0.06019905,-0.04207262,-0.0638194,-0.017865216,0.09935178,-0.054659747,0.013604262,0.015059409,0.0022812998,0.069428496,0.26827732,-0.045004193
0.025370795,-0.0339973,-0.033885475,-0.0011567842,0.06501882,-0.03465656,0.004120921,-0.011252115,-0.034131225,0.054768622,0.23562512,-0.048489116
0.00021500885,-0.026447756,-0.0182929,0.0030400313,0.037895087,-0.020162992,0.024055667,-0.0036287224,-0.034238573,0.06732193,0.19853748,-0.0460059
-0.0014432025,0.04875843,0.016406782,-0.038132727,0.0019846146,0.021902852,0.010484616,0.004495464,-0.0077333325,0.13304345,0.23688044,-0.0048462967
0.024498373,0.0376516,-0.006639409,-0.0563985,0.019030744,0.008848241,0.008443081,0.034479287,-0.0052920086,0.17428735,0.21634066,0.014676668
0.00230658,0.094770014,0.037680708,-0.07331338,-0.021693522,0.06672215,0.0071527297,0.0028083324,-0.006800871,0.17595613,0.18131004,0.03134038
0.02639949,0.065041825,0.008661217,-0.074150965,-0.003520919,0.043794155,0.0056151417,0.03329913,0.0046572313,0.185427,0.13411497,0.021887308
-0.014242211,0.05167465,0.045489807,-0.04544293,-0.022189746,0.048891358,0.007047458,0.0077743903,-0.00040383285,0.19620273,0.10387629,0.029608447
0.036311954,-0.07045222,-0.047807377,0.009626681,0.056916848,-0.01688743,0.0050693504,0.04422799,0.0016261397,0.14341274,0.062007435,0.050400626
-0.029917536,-0.13824373,-0.044202007,0.073157534,0.031116813,-0.042401172,-0.01701315,-0.00023242086,-0.07489504,0.14793077,0.101165056,0.13113567
-0.13848622,-0.44899502,-0.25005433,0.3188393,0.14744611,-0.35704532,0.07215272,0.12055101,-0.017765123,0.021642724,0.07244194,0.115609415
0.10071413,-0.43503296,-0.37645823,0.16855277,0.33154553,-0.36879689,0.16810024,0.22698125,0.17903619,0.30225816,0.40246597,0.36805493
0.48094514,-0.47740066,-0.66795325,-0.082943715,0.6610795,-0.62154514,0.20538539,0.4899151,0.5859537,0.59761274,0.75367266,0.6698803
0.6239753,-0.65954816,-0.8499995,-0.041456655,0.8360392,-0.83454967,-0.08307792,0.16387668,0.23771301,0.15219615,0.7549898,0.6939828
0.4993665,-0.7133168,-0.8112647,0.15043561,0.7579472,-0.81886125,-0.30559725,-0.44322872,-0.36983183,-0.4348377,0.4002908,0.5307771
0.39825696,-0.60889775,-0.6378591,0.17257905,0.60319036,-0.6712483,-0.012192583,-0.24118684,-0.21056797,-0.27692842,0.22608426,0.38163537
0.21720652,-0.47957677,-0.47636944,0.17574246,0.38986006,-0.54448766,-0.14088228,-0.28739703,-0.2200584,-0.2067146,-0.00083849375,0.025087977
0.06573867,-0.2486618,-0.20111203,0.1463527,0.12596421,-0.21454388,-0.15168038,-0.23071459,-0.10771959,-0.09779509,-0.04950423,-0.09001258
-0.120820686,-0.026270207,0.07836956,0.10196332,-0.057118997,0.052589145,-0.04181933,-0.09735346,-0.013877326,-0.06775377,-0.021869292,-0.15557238
-0.24482958,0.07113207,0.2667601,0.117674775,-0.22712201,0.23563622,0.11011596,-0.023882957,0.057336595,-0.088125624,-0.18496367,-0.22641845
-0.2547103,0.13774876,0.30825752,0.095090404,-0.25967777,0.31013978,0.023636956,-0.027585868,-0.014462494,-0.07479332,-0.23329511,-0.2032657
-0.25813225,0.13639268,0.32365412,0.0879131,-0.30080444,0.32080466,0.043114115,0.0100248335,-0.019774407,-0.06376401,-0.2750594,-0.24485803
-0.28585774,0.19959009,0.3536748,0.06261038,-0.3369041,0.34235635,0.026121693,-0.031215016,-0.026814867,-0.079689555,-0.29383528,-0.23937413
-0.12115355,0.36186066,0.34556687,-0.15136158,-0.28324237,0.3997542,0.017940551,0.023397056,0.05009412,0.036358684,-0.17660053,-0.099729545
-0.082216434,0.43571207,0.35107404,-0.2033861,-0.2432616,0.42583612,-0.04765938,-0.047992148,0.007438347,0.019677736,-0.13855818,-0.07558563
-0.058274448,0.46742326,0.3736224,-0.25554016,-0.26265323,0.4398516,0.00094678224,-0.0018642672,0.027289018,0.057544842,-0.082264915,-0.06652667
-0.053555366,0.5258574,0.41813436,-0.2920637,-0.2915912,0.5051587,-0.016011251,0.005250793,0.040170815,0.07360789,-0.02575199,-0.042417344
-0.00770215,0.48461032,0.35156322,-0.27959108,-0.22671697,0.43169877,-0.0141522745,0.0007681398,0.056179017,0.111928895,0.024143089,-0.003935268
-0.02085056,0.42006025,0.29787353,-0.23178491,-0.18201286,0.34845304,-0.039682224,-0.015125857,0.050087135,0.15869395,0.06774191,-0.017828852
-0.050224543,0.31536883,0.23347607,-0.15754037,-0.1608152,0.2769312,-0.0003765374,0.023221163,0.062141217,0.18179792,0.06384861,-0.0193107
-0.051084258,0.22995634,0.15461427,-0.11824133,-0.12666622,0.20028476,-0.013462878,0.015460863,0.06437739,0.18315901,0.05865178,0.004098642
-0.021486517,0.13403116,0.088470735,-0.08196721,-0.067060836,0.118901916,-0.014442736,0.010513008,0.049346615,0.16377065,0.04793572,0.012659213
0.01825111,0.11667187,0.049594957,-0.09066435,-0.021360619,0.089499176,-0.032941237,-0.006783311,0.03248695,0.1510697,0.046283197,0.048455022
0.030736448,0.0728102,0.028305842,-0.07034374,-0.005401601,0.048983183,-0.03223433,-0.02691975,-0.0018531233,0.10451015,0.018730253,0.056236707
0.0076495446,0.07048334,0.05105616,-0.05584728,-0.03740889,0.0720297,-0.010125071,-0.008437754,-0.00012272247,0.0910403,0.017957943,0.06511259
0.01341918,0.036907308,0.031151274,-0.03631149,-0.014176398,0.03916312,-0.0022011346,-0.0019593996,0.005998573,0.07898464,0.004058048,0.0640068
0.006613445,0.04304006,0.032361884,-0.036498975,-0.022959989,0.047483116,0.0098530315,0.0011038142,0.0014443236,0.077389926,0.0064614485,0.06642225
0.018793982,0.03462005,0.013481124,-0.0369559,0.0014227214,0.02323176,0.008164025,0.00059416884,0.020715768,0.076835625,0.0073111206,0.07345975
0.013742681,0.042137194,0.015458209,-0.034635462,-0.009576278,0.02849955,0.015103838,0.007972709,0.014844815,0.06265164,0.006696327,0.07115672
0.035909608,0.02510112,-0.0021657126,-0.040299077,0.02217534,0.003366262,0.023833912,0.014437971,0.021182025,0.04402733,-0.0015776424,0.06760337
0.04010031,0.02329107,-0.0028954365,-0.042223003,0.024489298,0.0074212956,0.016001811,0.012979214,0.0063740197,0.04148681,-0.01923031,0.055821437
0.027192835,-0.026661154,-0.017478045,-0.0050934996,0.044412095,-0.029384091,0.00833582,0.013061484,-0.0016451386,0.034409598,-0.051590137,0.048023496
0.01655316,-0.056527775,-0.027202677,0.019133884,0.053991277,-0.048057273,-0.002970682,-0.0046978584,-0.009172702,0.007953033,-0.08991888,0.027204558
0.0058977366,-0.047214866,-0.024432158,0.027492553,0.04223542,-0.03866604,-0.011929314,-0.0013638056,0.0022796202,-0.0006224424,-0.105600186,0.030176038
-0.011341566,-0.024629438,0.000864092,0.020556798,0.0017869477,-0.019729124,-0.0018477615,-0.0030478665,0.0072065135,-0.0072916853,-0.09232403,0.030217687
0.0041594077,0.003944317,-0.0003472604,-0.0039488045,0.007477944,-0.0034886121,0.02746718,0.01854004,0.020679446,0.0024564762,-0.07732666,0.04018708
0.023697663,0.05342753,0.032160882,-0.047261357,-0.019112907,0.043877196,0.04073399,0.003083875,0.01754564,0.0009463813,-0.070327304,0.051256973
0.023792973,0.073163554,0.03650776,-0.057706237,-0.007824396,0.06956865,0.04397167,-0.0004982128,0.0035985848,-0.007060301,-0.07574785,0.04573999
0.027390672,0.13120243,0.076626614,-0.1025118,-0.03710602,0.104352206,0.010354339,-0.01792642,0.0038529665,-0.0083706025,-0.05306392,0.053977057
0.026710305,0.063464805,0.014119368,-0.061644815,0.0071043223,0.03589317,0.042898428,0.004682756,-0.015336827,-0.024216898,-0.09203034,0.009346787
0.046907842,0.03428063,0.00058219203,-0.05996415,0.023480024,0.02221215,0.019797804,-0.01842382,0.016160002,-0.0012165176,-0.09610707,-0.0034838214
-0.0038897684,-0.050461218,-0.03399852,0.032538515,0.0381629,-0.03533412,0.012862919,0.024453163,-0.01680924,-0.018277232,-0.14356622,-0.038645923
0.033365004,-0.044696573,-0.03574055,0.0026746301,0.069024324,-0.04122938,0.026762743,0.027833577,0.036525294,0.025809124,-0.119373,-0.027978452
-0.100356005,-0.24494334,-0.0765533,0.16970669,0.0088070305,-0.15043034,0.037253387,0.060997993,-0.041650157,-0.07302651,-0.14842075,-0.06582727
0.017953817,-0.34682754,-0.31620124,0.19973888,0.24098463,-0.38271353,0.18879576,0.29074666,0.178163,0.036789592,0.0044535347,-0.026825655
0.18662976,-0.34366357,-0.3162389,0.08297423,0.4138427,-0.38476735,0.18411079,0.421569,0.35939267,0.20037343,0.19324018,0.031920042
0.6632521,-0.38039622,-0.71892047,-0.25585443,0.7801953,-0.65337586,0.027255395,0.56692076,0.6141241,0.4369664,0.49206346,0.3626298
0.72462165,-0.6285952,-0.79877305,-0.12086866,0.81478643,-0.77904904,-0.45781323,-0.22617947,-0.2797218,-0.5201341,-0.035516016,0.022543041
0.68248725,-0.5665009,-0.7050228,-0.13451089,0.7174828,-0.6837125,-0.4378684,-0.5432687,-0.5009834,-0.58470505,0.00909279,0.10816757
0.603994,-0.5458567,-0.7567018,-0.03218724,0.7430469,-0.7500901,-0.1369032,-0.13542831,-0.21277283,-0.51290745,-0.07572303,-0.047742303
0.3737916,-0.32457763,-0.4967349,-0.019561397,0.45857573,-0.5209184,-0.08471395,-0.14409927,-0.11990566,-0.37601852,-0.122326486,-0.1518883
0.034678884,-0.06436796,-0.08568109,0.02223766,0.0897714,-0.092467226,-0.0026427177,-0.038385812,-0.049256265,-0.3026346,-0.09833296,-0.08690759
-0.087664984,0.21761508,0.21198313,-0.056908336,-0.18631285,0.2603544,0.024115497,-0.031449344,0.016408725,-0.20548703,-0.1081694,-0.1415067
-0.12912455,0.2628043,0.26760057,-0.059507996,-0.23746648,0.31657958,-0.02622413,-0.053924028,-0.033799924,-0.189955,-0.18325257,-0.15892437
-0.16932906,0.30209932,0.31549072,-0.06959771,-0.29988202,0.3632519,-0.024352025,-0.052760825,-0.0438642,-0.116067536,-0.20810103,-0.13020572
-0.20629562,0.33629897,0.37207323,-0.078224316,-0.36563206,0.40391293,0.00715955,0.007920517,-0.021845363,-0.050301693,-0.22157079,-0.120038636
-0.27010423,0.30601948,0.4108386,-0.010361913,-0.42708352,0.40541485,-0.009763877,0.014159903,-0.039462496,-0.03402332,-0.28484213,-0.2029592
-0.42667127,0.07145168,0.31591344,0.22389884,-0.46142048,0.26842785,0.08059705,0.10294176,0.008971462,-0.021797342,-0.39158586,-0.34865355
-0.46464896,0.05279126,0.32676956,0.2633387,-0.48324347,0.26458588,0.07998697,0.06683726,-0.014590979,-0.04588613,-0.42999828,-0.3836321
-0.44145435,0.074107096,0.33714986,0.24229063,-0.46022722,0.27824077,0.042947117,0.09674838,0.0047127143,-0.0164212,-0.44090462,-0.393525
-0.44563594,0.1308422,0.37476125,0.21244968,-0.47986108,0.31124693,0.08098283,0.058200814,-0.03848043,-0.020182064,-0.440708,-0.3680178
-0.3898714,0.23013277,0.43474132,0.109455526,-0.47851518,0.38352704,0.091601856,0.08050505,0.020591212,0.04820216,-0.3520023,-0.2793252
-0.27850035,0.25975916,0.3694793,0.025068915,-0.3975324,0.34805056,0.0607718,0.037242312,-0.0084390985,0.082973205,-0.23286529,-0.1807329
-0.16410239,0.26428896,0.25457534,-0.03894301,-0.26287404,0.26491213,0.024166122,0.011452688,0.0043557347,0.107434094,-0.13086611,-0.10788859
-0.06506699,0.23722705,0.14940357,-0.10164764,-0.14611365,0.18668091,-0.016582157,-0.04115662,0.008695007,0.09183594,-0.07736273,-0.06289343
0.015058355,0.15850055,0.07612946,-0.112405784,-0.055602126,0.09877685,-0.024927454,-0.04567291,-0.010687548,0.068531305,-0.08442122,-0.019207306
0.0045718495,0.105046704,0.061083447,-0.06931468,-0.047409523,0.058437932,-0.020201528,-0.028734922,-0.017023945,0.005960765,-0.09514062,-0.0051931534
0.0007403343,0.06224898,0.045918956,-0.044441093,-0.03731597,0.030095119,-0.0051547512,-0.004546909,-0.011981176,0.0068530445,-0.07541309,0.023558531
0.02603432,0.056757614,0.022597134,-0.054722704,-0.012532016,0.029439395,0.019021753,0.007970619,0.0033991176,-0.0059396313,-0.041765757,0.030004887
0.044253375,0.042854473,0.0012542263,-0.054752756,0.017583096,0.017836688,0.0036532884,0.0060688257,0.0021386223,0.0135861505,-0.016172398,0.05382746
0.0404497,0.04920362,0.005481095,-0.060186595,0.0041173208,0.027844105,0.008841542,0.0048309485,0.0073091295,0.014159208,-0.006197729,0.061581798
0.03938858,0.03603654,0.0038644962,-0.05121802,0.014783192,0.01387267,0.001913059,0.0046169655,0.019562494,0.019281283,0.010166822,0.07481756
0.03489593,0.040322155,0.005832677,-0.05085243,0.011790446,0.023707781,0.010466639,0.007556097,0.028652951,0.01537639,0.0174928,0.08346959
0.039168045,0.023174599,-0.00608224,-0.038876172,0.028191369,0.0040165326,-0.00027217716,-0.008019834,0.020162694,0.017696174,0.018015668,0.09691234
0.0061884737,-0.011556361,0.00047895682,-0.0052036815,0.014655779,-0.013471227,0.010550065,-0.010399361,-0.00032915478,0.010505403,0.01725351,0.08671532
0.014729999,-0.018896997,-0.014787315,-0.0010060689,0.028815063,-0.032755096,0.014130874,-0.006226284,0.012849631,0.024687912,0.023852646,0.08631335
0.0023684718,0.00036816296,0.009689713,0.0014166252,0.0029865252,-0.0033864863,0.020095425,-0.008359293,0.017908975,0.01497601,0.024584556,0.07286727
0.0067553497,0.009033889,0.007799266,-0.0061649587,0.0017357502,-0.0029668554,0.02402688,-0.0107838465,0.015078687,0.0010181955,0.030348692,0.057346083
0.04526269,0.042883053,0.0069459714,-0.04839999,0.018909376,0.025252655,0.020335136,-0.0017325339,0.01909538,0.00020427397,0.041682463,0.04338888
0.04750969,0.0498167,0.003421893,-0.053343225,0.020371461,0.024106925,0.025844796,-0.0013504579,0.00969366,-0.010584401,0.030777916,0.031977452
0.046089385,0.0580606,0.0051290276,-0.06427501,0.0073171877,0.027486278,0.023617294,-0.0075089377,0.003015384,-0.030901738,0.026539138,0.011110024
0.033599578,0.025852075,-0.011985455,-0.039271493,0.02778542,0.0011578961,0.005007689,-0.03960631,-0.03254599,-0.07081366,-0.0046323636,-0.0124926325
0.06009311,0.026352867,-0.027861204,-0.04917826,0.064565726,-0.01452137,-0.0054263715,-0.028748881,-0.015200413,-0.07648596,0.0050326926,-0.008282558
0.08617976,0.0020214254,-0.064217515,-0.054611135,0.10577017,-0.059091926,0.010459458,-0.023529515,0.006852477,-0.05622163,0.013691475,0.005752355
0.04157104,-0.0073317653,-0.028272063,-0.0128376195,0.05814049,-0.03185591,0.017070651,-0.03311375,0.029895313,-0.028202642,0.035070322,0.017506767
0.032577477,-0.057303123,-0.049807157,0.012235253,0.08411457,-0.06553335,0.0560681,0.041298985,0.07884348,0.020427614,0.090841986,0.084693916
0.05614035,-0.12165366,-0.09018625,0.02854709,0.12116237,-0.08181119,-0.038284883,0.0058913147,0.08405,0.07842906,0.14798501,0.14797314
-0.019780988,-0.42575413,-0.2566461,0.2496647,0.24293447,-0.32966048,0.05989684,0.09458298,0.09974657,0.056064382,0.21878624,0.15746489
0.15218313,-0.5440358,-0.4028904,0.22132353,0.41708538,-0.43176308,0.06712203,0.17970791,0.21080269,0.120988406,0.39886943,0.28862935
0.3886427,-0.54978484,-0.6466996,0.11274268,0.6300608,-0.5630026,-0.043419644,0.13288587,0.37309784,0.48181042,0.6858889,0.5809902
0.7441765,-0.66978824,-0.8683099,-0.101762,0.87160885,-0.82577896,-0.21070275,0.07938064,0.499752,0.6470823,0.8872318,0.7440261
0.55626434,-0.81826454,-0.86022687,0.23546101,0.78433883,-0.8673197,-0.34558803,-0.3616211,-0.6054742,-0.3082491,0.621391,0.50912225
0.7075647,-0.39678046,-0.7341397,-0.28423795,0.79235876,-0.7043002,-0.33161104,-0.09475352,-0.3307637,0.01284814,0.7721748,0.6765731
0.5159907,-0.4956139,-0.59234023,-0.0048429896,0.69112015,-0.59920466,-0.22533305,-0.124679595,-0.48792446,-0.45983675,0.2370576,0.12026496
0.33630744,-0.24010566,-0.34382492,-0.029330814,0.372775,-0.3378393,-0.10217505,-0.09089254,-0.1992143,-0.20680523,0.15976946,-0.031227494
0.052803244,-0.00040199977,-0.015567978,-0.0050239,0.029956797,0.010784549,-0.06778886,-0.16690497,-0.2122873,-0.15281205,0.12240642,-0.12569462
-0.12436332,0.11537201,0.18303324,0.005721934,-0.16917694,0.18890984,0.036100417,-0.10474528,-0.17203584,-0.068319894,0.030168833,-0.18348442
-0.17617044,0.13496535,0.23441803,0.013941196,-0.20968749,0.23938079,0.059576012,-0.06393451,-0.11296497,-0.030424954,-0.09778355,-0.25221297
-0.18619156,0.15486696,0.26112235,0.021250928,-0.24386205,0.25639588,0.05226677,-0.032929737,-0.10229655,0.028289372,-0.12769261,-0.26370737
-0.22060111,0.14902486,0.28216478,0.026292901,-0.27840307,0.25499746,0.05924204,0.04845059,-0.029063357,0.0821838,-0.09048852,-0.25461867
-0.27577648,0.13215776,0.28995672,0.08932109,-0.3203607,0.24666262,0.08042082,0.10681591,0.018467447,0.13133392,-0.08449646,-0.27931744
-0.45994225,0.017770559,0.36704344,0.2706137,-0.4567315,0.26558504,0.14036891,0.14113413,0.06989509,0.12408202,-0.16400418,-0.35746133
-0.5073882,-0.006723988,0.3684538,0.32752034,-0.48104212,0.29783753,0.1578013,0.14819938,0.09765909,0.11095382,-0.1976387,-0.3761365
-0.5314378,0.007589377,0.41906142,0.3413123,-0.5134385,0.34768832,0.16739331,0.14532179,0.1325926,0.10236421,-0.21278234,-0.36083478
-0.48150873,0.06720786,0.44141906,0.281297,-0.52529454,0.37130338,0.13312915,0.11192608,0.13277264,0.09676747,-0.19210513,-0.2996726
-0.31391,0.0846859,0.2571185,0.16709176,-0.3427871,0.24479194,0.06848817,0.09258519,0.11640763,0.11890619,-0.119657524,-0.18107358
-0.1898689,0.1499838,0.20689121,0.04181454,-0.23143323,0.21904106,0.015089607,0.033273954,0.07932194,0.090496734,-0.07177279,-0.09013555
-0.120336846,0.12030931,0.14418326,0.0025448473,-0.1723662,0.1579041,0.0015941584,0.035040073,0.060921647,0.097793505,-0.03303524,-0.021864654
-0.079315245,0.07517504,0.083571784,0.0021574697,-0.08960766,0.0823211,0.004510029,0.048947893,0.08137238,0.115534514,-0.026945695,-0.009722936
-0.023185125,0.07259304,0.06275904,-0.034408055,-0.0519004,0.085184544,0.002629613,0.04479194,0.09396072,0.19185193,0.015700392,0.043044563
0.00981239,0.037937187,0.011840472,-0.03516309,0.0043823146,0.030786257,-0.0020029293,0.029195646,0.09637738,0.21501575,0.020199459,0.050569326
0.015446906,0.0035525858,-0.012193966,-0.018366598,0.023277476,0.0015206512,-0.0028663273,0.019822024,0.06790927,0.23408224,0.01792625,0.060572024
0.0036096529,-0.008102784,-0.009185693,-0.004296687,0.016719658,-0.0048668184,0.024524493,0.027510775,0.06367076,0.21655105,0.0047292598,0.055465307
0.00411564,-0.00915916,-0.013933558,-0.00174478,0.022571255,-0.006659359,0.031841528,0.047185946,0.07412874,0.21557584,0.015313008,0.068850614
0.011980181,-0.014188612,-0.01837599,-0.004262348,0.02564833,-0.011096061,0.021925068,0.0415545,0.07696638,0.21024023,0.011328997,0.06843671
0.0005918666,-0.013527857,0.00035588813,0.00941337,0.006232272,-0.0040436187,0.021341309,0.02875995,0.07427018,0.18432243,0.009802052,0.06456268
-0.012678194,-0.02465682,-0.0018945463,0.021237414,0.0060861586,0.0024702926,0.015708808,0.028491577,0.067798525,0.1742435,0.004294814,0.06974013
0.00073243293,-0.032460246,-0.014653927,0.017376274,0.027593087,-0.015147149,0.024865728,0.044394597,0.059875995,0.15091911,0.0095846085,0.07561534
-0.008677887,-0.032388348,0.0010101829,0.026455473,0.009291886,-0.0042950395,0.017920192,0.030560544,0.05242343,0.12971996,-0.0064645684,0.07019745
-0.013546327,-0.007306997,0.01706982,0.018389732,-0.0072429925,0.006660696,0.026926806,0.018160827,0.061453052,0.121260375,-0.0035897582,0.07349288
0.0013755887,0.020978367,0.008243356,-0.013866431,-0.0015133356,0.019362893,0.019002732,0.013235623,0.056669876,0.11745829,0.012063215,0.08485977
0.03140931,0.047191255,0.006379946,-0.05307052,0.0041310056,0.028106108,0.008960733,-0.00017343834,0.0519465,0.1166087,0.025061265,0.10151321
0.0393204,0.03834453,0.0031394074,-0.05575322,0.016661413,0.02390088,0.014550717,-0.0006670243,0.031351563,0.106978096,0.024498397,0.08697522
0.05779588,0.05127452,-0.0084222015,-0.07257495,0.03041043,0.026884995,0.009439922,0.00843582,0.046870567,0.096506126,0.029974665,0.085463524
0.053330462,0.039238103,-0.011506918,-0.05972645,0.028668534,0.0063243094,0.0064143217,0.013194492,0.033045407,0.05794223,0.024647469,0.058172826
0.042285416,0.009181249,-0.0144380545,-0.03436418,0.032373257,-0.008584261,0.01611513,0.0028244182,0.014462428,0.020244997,0.007768046,0.03490909
0.05306079,0.0028826739,-0.027072232,-0.029667424,0.065146044,-0.022355715,0.02334781,0.017590025,0.038367607,0.017075308,0.015889924,0.033402354
0.066698,-0.004115346,-0.042602632,-0.034529142,0.09063154,-0.03292368,0.018569142,-0.0022463314,0.049262375,0.014365756,-0.00297479,0.045714196
0.065936476,-0.024874114,-0.05211679,-0.025236841,0.113550335,-0.038733907,0.008901825,-0.008820822,0.07650181,0.012961297,0.0012288479,0.0762937
0.06739473,-0.06281749,-0.104020625,0.005991084,0.13572411,-0.09141766,-0.02245262,0.028826032,0.11385069,0.033449333,-0.016956724,0.10621396
-0.04966423,-0.2349621,-0.102876194,0.14256853,0.047567945,-0.15344468,0.0011431905,0.022771697,0.13033922,-0.030967664,-0.08522304,0.079816796
0.06179862,-0.36514094,-0.31078935,0.17500417,0.30763945,-0.3831089,0.04915815,0.18277061,0.23140828,-0.023692606,-0.024504768,0.0793002
0.15140668,-0.3703184,-0.40928474,0.12400165,0.42445475,-0.4133293,0.015678518,0.17551482,0.22896641,0.047146175,0.04775658,0.14309326
0.5846004,-0.30312285,-0.6391417,-0.21269809,0.7731027,-0.5397113,-0.19327071,0.4184216,0.62384665,0.47111225,0.40864143,0.3896118
0.83322644,-0.5184461,-0.8629112,-0.39758024,0.90536064,-0.7830589,-0.7773032,-0.24490927,-0.019227754,0.103698626,0.40164393,0.52897024
0.7838863,-0.7274946,-0.86994135,-0.17301208,0.8774486,-0.87035763,-0.825866,-0.5292533,-0.7177186,-0.44320112,0.024362296,0.28815424
0.79353327,-0.43006676,-0.7700142,-0.36132976,0.8164038,-0.711928,-0.7919095,-0.48094422,-0.53328204,-0.27066776,0.14699982,0.32818198
0.4570382,-0.38872716,-0.5439565,-0.03479294,0.50895023,-0.5103392,-0.4610564,-0.22496654,-0.3099374,-0.2528976,-0.08002927,-0.0485945
0.17728843,-0.16674517,-0.24890101,0.012966712,0.18786423,-0.20998694,-0.22559127,-0.1456442,-0.079985365,-0.06928529,-0.03820555,-0.15243468
-0.1626995,0.009985212,0.11296824,0.1133273,-0.14580147,0.10333231,-0.028427927,0.020952674,-0.02552995,-0.031304292,-0.052739237,-0.18390706
-0.1845508,0.11559358,0.21090436,0.05696717,-0.1960879,0.20912477,0.041096825,0.06591324,0.004021891,-0.0035580215,-0.080781795,-0.19604811
-0.24989876,0.07934146,0.25137642,0.122965574,-0.27189136,0.22591794,0.005089023,0.035064414,-0.045255728,-0.071009345,-0.12054529,-0.21183859
-0.29169756,0.124718204,0.2990628,0.12200601,-0.31151783,0.28541434,0.02014592,0.030662168,0.01334005,-0.045606606,-0.07284527,-0.19802094
-0.33050427,0.13495086,0.34375745,0.13596876,-0.3589234,0.3147936,0.053640414,0.030904042,0.04210121,-0.05534276,-0.10792643,-0.23329404
-0.36975855,0.16702615,0.37629303,0.15212643,-0.38412806,0.33909148,0.13617499,0.082008846,0.09403218,-0.020358123,-0.13469446,-0.21123335
-0.38702804,0.22712056,0.44161066,0.12309771,-0.43286774,0.40612888,0.23038563,0.15632038,0.16681823,0.04796922,-0.12622967,-0.184679
-0.44890654,0.28975177,0.50535727,0.13020284,-0.49838507,0.4581934,0.2798272,0.19711019,0.1871913,0.08278511,-0.14637195,-0.18916671
-0.47028175,0.31444636,0.54508376,0.13512106,-0.5314093,0.50455076,0.3214624,0.22098489,0.21764664,0.115187235,-0.15851258,-0.17939074
-0.41160807,0.35573968,0.52954775,0.06818297,-0.5061601,0.5062448,0.26529464,0.1925332,0.20342748,0.13484392,-0.09956641,-0.14075729
-0.31704035,0.34166405,0.4395269,0.016653739,-0.3988545,0.4485971,0.23649126,0.16557103,0.21002914,0.1730148,-0.012218789,-0.04721579
-0.20735416,0.30685583,0.31591642,-0.04470101,-0.29052398,0.34515202,0.16587299,0.13560237,0.17620637,0.195801,0.05445744,0.038555335
-0.101150416,0.25717378,0.20437132,-0.094748266,-0.18830417,0.24296384,0.058944285,0.028110541,0.103514,0.15065894,0.08757546,0.10404291
-0.009468671,0.16151182,0.084880866,-0.09501283,-0.051827364,0.10208774,-0.032604944,-0.03539102,0.067416206,0.051908083,0.06149008,0.09181361
0.028311865,0.06328648,0.031702798,-0.06812983,0.0011496069,0.02754618,-0.053144384,-0.033587184,0.026861751,0.065824926,0.025262082,0.09272706
0.030632338,-0.026453346,-0.00999581,-0.010365919,0.033679634,-0.040128283,-0.029616944,-0.018254785,0.009562788,0.03157882,-0.020067079,0.06486194
0.024235368,-0.012842951,-0.0068078665,-0.007489233,0.020677358,-0.025815433,-0.013444918,-0.01168183,0.023260416,0.04295356,0.011926127,0.06966354
0.012824078,-0.007320035,-0.00031112507,-0.002901992,0.016050214,-0.013421908,0.017913429,-0.008988719,0.030664733,0.031762555,0.013888936,0.06391773
-0.0015532771,0.015598857,0.01608876,-0.0064057373,-0.0009974848,0.006770755,0.028867176,-0.0055679474,0.028853033,0.028348213,0.037044726,0.05851422
0.013917516,0.021654103,0.0068230056,-0.020514665,0.00506182,0.011970047,0.03207352,-0.0018327588,0.02997413,0.028884439,0.023452692,0.07330618
0.0146561535,0.016837377,0.007436932,-0.019771105,0.005061724,-0.00022174418,0.024218677,-0.003665699,0.031970374,0.025499754,0.03540233,0.07467554
0.011668808,0.0039454643,-0.0053422875,-0.008844326,0.011864722,-0.003718942,0.036763817,0.00043661517,0.026175832,0.020598961,0.026377004,0.08692182
0.003196046,0.00893467,0.014060513,-0.003671582,-0.0069616563,0.007343702,0.04505612,0.0016441405,0.024551013,0.021977352,0.035046924,0.08337445
-0.0019555923,0.014073821,0.0150318295,-0.0021518632,-0.009814864,0.020538952,0.06543092,0.0050343,0.019168356,0.014256992,0.025737729,0.07023052
0.013666796,0.055859085,0.028832205,-0.040050093,-0.012749888,0.046693604,0.05494644,-0.00095347286,0.025031514,0.024785034,0.044475302,0.08000571
0.024276597,0.057081185,0.021089619,-0.056339614,-0.008413597,0.042247757,0.04126253,-0.005592154,0.026343785,0.006711529,0.037585292,0.082073204
0.04343986,0.09509206,0.027312633,-0.083541945,-0.0006204736,0.061441034,-0.0039727534,-0.038024694,0.0035118323,-0.0038887071,0.045613125,0.08014089
0.062667914,0.06315699,-0.0010002364,-0.08212177,0.03160147,0.011351986,-0.03244516,-0.037587337,-0.01788802,-0.020590466,0.02615031,0.065971196
0.06309898,0.031717855,-0.019787794,-0.055394206,0.052771036,-0.0014399373,-0.04788865,-0.05941515,-0.024861038,-0.024783533,0.0085468,0.060931034
0.016809247,-0.028270602,-0.023796726,0.006711305,0.03228974,-0.04749791,-0.03200654,-0.028225813,-0.017414117,-0.030007508,-0.02699761,0.03325599
0.036203977,-0.013347623,-0.021378944,-0.009789978,0.0441393,-0.034900054,-0.027755247,-0.03774366,-0.007903059,-0.01979199,-0.0063402997,0.03186868
0.061478935,-0.009302147,-0.031569563,-0.03025163,0.055405222,-0.04857348,-0.015483116,-0.012967992,0.0104628205,-0.0020673287,-0.003665077,0.029855926
0.04661612,-0.020190025,-0.032836262,-0.010411131,0.05653697,-0.038059514,-0.011368541,-0.020195138,0.0146213835,0.008885861,-0.018308504,0.017285898
0.04385258,-0.04611927,-0.042990237,-0.0011115099,0.07518554,-0.040368974,0.015496176,-0.016032752,0.04278188,0.027304923,-0.009675417,0.03601747
-0.038540818,-0.14445254,-0.079963215,0.108670026,0.06244825,-0.065323204,0.057136107,-0.02194637,0.06430376,-0.00011703046,-0.080596596,-0.030540591
-0.14845362,-0.23851125,-0.09930497,0.24064277,0.037865706,-0.11726003,0.13580209,-0.016071396,0.124925815,0.028582579,-0.089310504,-0.067661196
-0.097462,-0.3913163,-0.15593179,0.29634166,0.041874807,-0.24378538,0.16043566,0.07735704,0.16129434,0.06968061,-0.0016691874,0.01116892
0.00940411,-0.24116795,-0.16346742,0.15802619,0.053013124,-0.17239445,0.1527183,0.2151411,0.20949954,0.25815836,0.18405083,0.10990693
0.5476727,-0.24767008,-0.6984777,-0.21048263,0.7566569,-0.51576054,-0.37315896,0.14683296,0.053579334,0.05905454,0.2445611,0.23364103
0.8068866,-0.18382259,-0.83999914,-0.5181241,0.87522936,-0.68684673,-0.78526926,-0.36196953,-0.31786713,-0.24806619,0.14083491,0.30202714
0.78519,-0.28682756,-0.81218994,-0.4442734,0.8564142,-0.69934905,-0.72711086,-0.21939276,-0.26194155,-0.17593822,0.12822407,0.27230743
0.8032512,-0.15522435,-0.7569978,-0.5336774,0.8229257,-0.64699453,-0.6976942,-0.22200409,-0.29722294,-0.17091466,0.21494605,0.30175844
0.6651689,-0.29222003,-0.65597034,-0.29851493,0.73380065,-0.6328372,-0.5400136,-0.25200525,-0.49622396,-0.4586102,-0.06607682,0.09041109
0.15127799,-0.027414557,-0.1429279,-0.057493903,0.093250215,-0.092230126,-0.175651,-0.099783875,-0.13817628,-0.18787348,-0.0654133,0.029361818
-0.23517366,-0.058479417,0.13035902,0.18859144,-0.20119262,0.09962171,0.067889586,0.041553855,-0.06981635,-0.12843953,-0.13967177,-0.21412991
-0.27091387,-0.0139333755,0.21224253,0.18698041,-0.23598105,0.18040515,0.12834327,0.045299716,-0.018767463,-0.09225447,-0.124548316,-0.22843261
-0.35174248,-0.088680334,0.23371887,0.2748384,-0.29742578,0.15878507,0.17074333,0.043804374,-0.023167819,-0.10396255,-0.17381144,-0.27475226
-0.37239274,-0.06540315,0.27132183,0.27087525,-0.3312599,0.18498926,0.2095897,0.09569227,0.056494128,-0.025567066,-0.12996534,-0.2777741
-0.4174397,-0.06441287,0.3011768,0.29522318,-0.3668596,0.19811639,0.24274883,0.16025959,0.10461749,0.04591341,-0.12561058,-0.29630333
-0.49960577,-0.11564498,0.34455475,0.37772575,-0.45319775,0.21364988,0.24504104,0.1405905,0.043551296,-0.005149256,-0.17922534,-0.34567976
-0.35663638,-0.14308618,0.20600882,0.29256102,-0.30148008,0.11376715,0.18649015,0.15715899,0.107232474,0.035992734,-0.10999237,-0.3275037
-0.39460278,-0.109408855,0.26786968,0.31622738,-0.32967427,0.19161376,0.1559022,0.09341847,0.09262999,-0.01763506,-0.124187954,-0.32322687
-0.38373616,-0.19070823,0.21224509,0.34019196,-0.31241044,0.11140085,0.16326436,0.06368021,0.085998945,-0.025223736,-0.11543328,-0.27510557
-0.30836514,-0.09998054,0.19897458,0.2585687,-0.26106483,0.13284552,0.1474119,0.095031194,0.14301772,0.025901487,-0.069258966,-0.15809391
-0.2110055,0.03501969,0.1499139,0.11830534,-0.20321253,0.15255249,0.086359546,0.095777534,0.11192727,0.057814583,-0.031055015,-0.06585536
-0.06716092,0.11464466,0.097932935,-0.009089823,-0.08612888,0.11594982,-0.0676915,-0.00379438,0.059337743,0.025236288,-0.010551078,-0.011323925
0.022618754,0.0878338,0.029707497,-0.051748734,0.0010361533,0.032198083,-0.13153423,-0.067408614,0.01408389,0.007796442,0.012051557,0.014446291
0.024963805,0.031377308,-0.0043741893,-0.029688798,0.020749789,-0.0059459703,-0.085301474,-0.05195898,0.00052709196,-0.0057973536,0.006118671,0.008596976
0.020887962,-0.010317056,-0.006428701,-0.0035065939,0.018029425,-0.021821368,-0.059604377,-0.023835488,0.00012250594,0.02629607,0.012507232,0.02317656
0.01846911,-0.011464399,-0.020266041,-0.007210591,0.03093931,-0.028419092,-0.04058744,-0.008065965,-0.012596811,0.010688481,0.008167013,0.032096695
0.017967276,0.010435202,-0.008592778,-0.014788245,0.015741104,-0.008301557,-0.021206899,0.007955752,-0.0010076923,0.016839443,0.026622744,0.046756245
0.016781412,0.0236737,0.004024223,-0.020909762,0.007717693,0.010380624,-0.006025314,0.005058819,0.011165294,0.006330117,0.028131206,0.048029408
0.004107843,0.0145973405,0.0098863635,-0.011067633,-0.007555906,0.007085374,-0.0037461373,0.000829961,0.0042308564,0.009316831,0.037268594,0.056133725
-0.0017910507,0.0043076235,0.011069873,1.7287559e-05,-0.0075868443,0.007806718,0.0023277919,-0.006272565,-0.002969162,0.0015973281,0.01885421,0.052689314
-0.005953789,0.014692307,0.028756797,-0.0045090867,-0.026979573,0.019881513,-0.0062887454,-0.0035511851,0.0073335823,0.006076047,0.0332982,0.049809013
0.013100087,0.027599633,0.019060824,-0.02475132,-0.011888768,0.029949555,-0.008665245,-0.0029244674,0.0148078725,-0.0034727058,0.022903511,0.060185134
0.028249878,0.06695055,0.025118986,-0.054352995,-0.0070111537,0.040824868,-0.05436597,-0.010854738,-0.005515781,0.0034246808,0.036493693,0.06683795
0.031299617,0.072533526,0.029189287,-0.07060703,-0.011429094,0.051269762,-0.05911856,-0.0111732455,-0.013825009,0.015326207,0.030599467,0.05377389
0.035577297,0.08422298,0.036151275,-0.07726201,-0.0061888397,0.051336844,-0.09096826,-0.019546082,-0.03473061,0.011899962,0.02301964,0.06019156
0.07061398,0.10977087,0.011635318,-0.11294658,0.013735663,0.051964857,-0.12540932,-0.033837836,-0.03988403,0.011847806,0.020404419,0.051194567
0.08876053,0.11127354,-0.0037760108,-0.121313676,0.033908088,0.03994918,-0.22899944,-0.102934994,-0.099883914,-0.00095767545,0.0119361235,0.06534504
0.07033459,0.019611243,-0.03947381,-0.067108355,0.05890268,-0.025016138,-0.16258182,-0.0127441315,-0.037581597,0.008989457,-0.0115861455,0.021969605
0.071700424,0.009018169,-0.05315709,-0.0634372,0.05983882,-0.03965177,-0.19343428,-0.04487699,-0.03570247,0.0103319,-0.0022079276,0.029446004
0.04892342,-0.03787599,-0.05704371,-0.015636528,0.071090996,-0.067290045,-0.13565703,0.0030648315,-0.0026630252,-0.0016217446,-0.02449811,0.009448102
0.053952694,0.017711775,-0.024792653,-0.05311098,0.04294346,-0.02016945,-0.14813967,-0.02072708,-0.015588069,0.008148691,-0.0049423007,0.02431014
0.050276592,-0.02494553,-0.042129967,-0.012366445,0.0674485,-0.044848386,-0.10914436,0.018466322,-0.007937924,-0.002530676,-0.036754176,-0.019231787
0.032393858,-0.035800107,-0.016491218,-0.00860219,0.035893284,-0.023728548,-0.11502366,0.0025212301,-0.0068646353,-0.013087992,-0.03599471,-0.0053268243
0.009036858,-0.09692054,-0.037964012,0.025971068,0.030460378,-0.049639966,-0.09435066,0.054681502,0.03134294,0.012612306,-0.039664846,0.014279274
-0.031506646,-0.15657967,-0.06498982,0.091785826,0.036549874,-0.10834053,-0.10564899,0.08667228,0.03186215,-0.016035754,-0.06446098,0.011775065
-0.08256489,-0.34246486,-0.19304718,0.22632131,0.15460816,-0.29841775,-0.021467885,0.19756874,0.05041454,-0.05563916,-0.08976531,-0.05126609
0.012094873,-0.34800875,-0.23074153,0.19789772,0.2537913,-0.306109,0.042868465,0.17260447,0.045181245,-0.025521033,-0.07097983,-0.074432045
0.2567618,-0.32772735,-0.45251152,0.089219004,0.5168628,-0.4034501,0.12108008,0.4070896,0.36396948,0.23256394,0.081817396,0.048600595
0.61566925,-0.599484,-0.83606654,-0.004901289,0.84021914,-0.813092,-0.34484965,0.2852072,0.26121852,0.24670297,0.10174052,0.05047685
0.75369936,-0.75631076,-0.9200217,-0.062056225,0.89558804,-0.9348681,-0.7891023,-0.41511595,-0.6097813,-0.32170475,0.042930745,0.121468596
0.7324697,-0.5555824,-0.82634634,-0.14880069,0.81794494,-0.84244674,-0.7538826,-0.4372273,-0.61184835,-0.2945204,0.104470015,0.100664556
0.5196711,-0.36865863,-0.6474931,-0.0938484,0.57703876,-0.6460682,-0.5062812,-0.28228262,-0.38702756,-0.15762322,0.08845187,-0.05856655
0.19651856,-0.15955478,-0.31623253,-0.021746788,0.2080405,-0.27037457,-0.31322122,-0.19287145,-0.2017324,-0.059300926,0.073853776,-0.034959566
-0.048639663,0.055840474,0.045617823,0.021638596,-0.05689156,0.07465567,-0.11579442,-0.07768607,-0.16769312,-0.04733777,-0.0038762402,-0.058455214
-0.15201682,0.100339316,0.19531414,0.046676684,-0.20486286,0.21047191,0.030345557,-0.0025737751,-0.12190238,-0.029318128,-0.02392805,-0.0098889
-0.16565076,0.13826379,0.25406566,0.025421467,-0.23503561,0.26973227,0.111642785,0.053958964,-0.02243472,-0.0039828345,-0.03640138,0.03273669
-0.24975084,0.1041541,0.29496053,0.08036996,-0.31769574,0.28961095,0.17481887,0.07918992,-0.002981695,0.016221777,-0.055338006,0.006415454
-0.28235525,0.1348077,0.3276615,0.09181894,-0.34662968,0.3174469,0.22943734,0.12634608,0.024567766,0.046647258,-0.043201473,0.004215629
-0.32122234,0.14708965,0.38953114,0.09986628,-0.3879426,0.36886144,0.28323218,0.11860112,0.0063355053,0.0062837717,-0.10116859,-0.038008533
-0.30582055,0.23747107,0.4174079,0.053326167,-0.41205397,0.41376558,0.29599142,0.14895152,0.06835379,0.05051799,-0.10958501,-0.024529114
-0.15887016,0.21879336,0.24171741,-0.027856758,-0.26072124,0.28872794,0.29025006,0.17667738,0.1068333,0.053427134,-0.12222058,-0.0006488747
-0.13747603,0.2542685,0.26580778,-0.0556396,-0.2541697,0.30900258,0.26967323,0.18028753,0.14829068,0.08038967,-0.08397684,0.02415201
-0.19204836,0.20134366,0.27375233,-0.013278878,-0.31385303,0.28583527,0.28151497,0.19646549,0.086611405,0.07187306,-0.12700625,0.0033250998
-0.1734776,0.16956615,0.2511324,0.0056778803,-0.28470865,0.24710076,0.26625088,0.22265558,0.09763646,0.052778006,-0.0930945,0.033555824
-0.09277701,0.072902486,0.12125192,0.0052046,-0.15242434,0.090968385,0.1295546,0.16172834,0.0053460053,0.020353915,-0.10028904,0.019838149
-0.018457139,0.05755788,0.04448524,-0.027558398,-0.044712663,0.020461809,0.016915534,0.1061757,0.019496724,0.017376719,-0.059796866,0.015884897
0.025196012,0.039433435,0.01498187,-0.045498285,-0.005601149,0.0033409472,-0.04674156,0.031786833,0.010792171,0.027799089,-0.02375362,0.027837452
0.013550607,0.015907504,0.010230188,-0.018088225,0.002746041,-0.006727227,-0.038434435,0.0129202455,0.003132785,0.00042343463,-0.015556386,0.0081147095
0.018118,0.008316541,0.005660373,-0.019104542,0.009973246,-0.009948429,-0.052327838,0.004213185,0.00361317,0.016386118,-0.012083631,0.012562482
-0.0029365895,0.0015123475,0.012986988,-0.003838414,-0.0010930113,-0.001837475,-0.043184977,0.0045877933,-0.010946924,0.0079649845,-0.0064239716,0.0034540065
0.0056665046,0.0025497172,0.0043591843,-0.007678914,0.007043214,-0.009548027,-0.039347574,0.016457811,-0.00058017735,0.016892258,0.006884125,0.006005841
-0.005961515,-0.0011749485,0.013193293,0.005014836,-0.0028685546,-0.0015151992,-0.03776619,-0.0010325086,-0.0013654014,0.002067365,-0.0034088527,-0.007249735
-0.014255657,-0.013130797,0.014002745,0.0145131415,-0.010861172,-0.015546836,-0.015535922,0.002358935,0.0024027796,0.0069439593,-0.0013791369,-0.008382448
-0.012596154,0.017517935,0.02894419,-0.0002517543,-0.030074267,0.022833202,-0.0009783065,0.0006519741,0.0035001466,-0.00076701475,0.01744818,0.00013101101
0.010694204,0.024654368,0.016912706,-0.018585019,-0.0128433835,0.011456784,0.007819132,-0.000698015,0.008399097,0.00610869,0.025333568,-0.007132752
0.0067844354,0.03838326,0.030799733,-0.02771923,-0.02994629,0.033602674,0.018379545,-0.013752353,0.0012389739,0.010532392,0.027158657,-0.0041173203
-0.0054070237,0.045441724,0.0380049,-0.02710368,-0.040849645,0.040545225,0.01324956,-0.017083973,0.0027035733,0.013782446,0.023529034,0.00817463
0.011019618,0.06801745,0.033116415,-0.048522923,-0.021884,0.049801357,-0.024684206,-0.021049311,-0.0029397926,0.0104719335,0.033361617,0.0121044805
0.03690482,0.056880657,0.004442346,-0.047824968,0.010441656,0.016535848,-0.08619546,-0.05932972,-0.02641031,-0.0009250084,0.011755697,0.0014048954
0.009536168,0.014250163,-0.0032347515,-0.013775477,0.011630916,-0.010428583,-0.048226804,-0.043773185,-0.01674214,-0.010998828,-0.0014372737,-0.011809697
0.013180368,-0.0070806267,-0.020790825,-0.0009546935,0.033772383,-0.029439203,-0.04614519,-0.04385265,-0.007886687,0.0036727448,0.017561441,-0.0027262315
0.011885404,-0.042547166,-0.036272425,0.020881979,0.04686116,-0.05727876,-0.03492853,-0.050125934,-0.013619762,-0.009892783,0.003213039,-0.012661153
0.00084607286,-0.048569277,-0.03293885,0.028843159,0.039933573,-0.054051783,-0.005513086,-0.04380236,-0.0051572304,-0.003441656,-0.009687991,-0.008560716
0.005629208,-0.018793408,-0.02562827,0.013447536,0.0362314,-0.03752765,-0.0076486566,-0.044957027,0.004393797,-0.015092804,-0.014447584,-0.009846738
-0.012620609,-0.0011879051,-0.006718136,0.007741677,0.0041883327,-0.012721681,-0.0022860102,-0.017210148,0.0074553345,9.1451686e-05,-0.025779806,0.0015903101
0.021468995,0.028539475,-0.017332789,-0.034335833,0.015156243,0.0123502575,-0.00050537376,-0.014263813,0.024492163,-0.018748008,-0.041454125,0.0019046958
0.03399433,0.026007285,-0.039618067,-0.050311305,0.051455367,-0.013982865,-0.049232893,-0.058904693,-0.025405338,-0.044023726,-0.078434944,-0.014371155
0.13058838,0.061331846,-0.11913053,-0.13475509,0.1877109,-0.04936561,-0.021938723,-0.056434315,-0.025586346,-0.02879121,-0.05719878,0.054388884
0.09460945,-0.34071803,-0.35481545,0.15250535,0.37379992,-0.40944138,0.19046058,0.19292486,0.11580404,-0.07382089,-0.11659409,-0.0543937
0.18180732,-0.67357147,-0.5822144,0.30804622,0.41352797,-0.7474332,0.23033175,0.18878005,0.1310217,-0.0365523,-0.17935285,-0.14112467
0.3069003,-0.6973217,-0.646852,0.23089403,0.40524784,-0.80126613,-0.34820458,-0.44324037,-0.29106912,-0.18911083,-0.14097796,-0.0771359
0.31590047,-0.41855007,-0.44136566,0.060387727,0.27628016,-0.54859245,-0.5273797,-0.63444394,-0.4516272,-0.24085286,-0.07048621,0.000101376325
0.088446684,-0.20971836,-0.12444407,0.118952446,0.11602248,-0.17546235,-0.22673172,-0.42793754,-0.40928558,-0.37344337,-0.32209957,-0.15304428
-0.025433632,-0.0035711897,0.085742354,0.023827372,-0.07019967,0.07613408,-0.024840152,-0.19969915,-0.12431988,-0.15482019,-0.26304305,-0.06299976
-0.124058016,0.074474886,0.14699358,0.017214414,-0.114635535,0.1637548,0.061621882,-0.15897827,-0.09184518,-0.124096096,-0.28870597,-0.08323173
-0.09745905,0.1414846,0.1496063,-0.029246062,-0.12440213,0.19107586,0.06537855,-0.114483416,-0.06081721,-0.0707789,-0.27806124,-0.038839623
-0.07799303,0.1754572,0.15550686,-0.07994699,-0.13149667,0.19605426,0.10183514,-0.090846226,-0.05842965,-0.08991257,-0.27742922,-0.035688583
-0.0923001,0.22091037,0.17374045,-0.08261042,-0.15698376,0.24406144,0.12907857,-0.07518925,-0.028766815,-0.05775653,-0.27529338,-0.031724587
-0.07973017,0.2704099,0.21187934,-0.12941945,-0.17905453,0.28826424,0.13070112,-0.07193669,-0.02749374,-0.044743147,-0.24164397,-0.011923094
-0.089408636,0.3113555,0.23231994,-0.14384475,-0.1891574,0.3337374,0.11005079,-0.074689485,-0.0028985175,-0.05490108,-0.20415169,-0.027501076
-0.017706335,0.37528923,0.25994578,-0.22161888,-0.16953638,0.4065804,0.059876774,-0.06453589,-0.0014929948,-0.047063485,-0.11115237,0.019675473
0.005134545,0.41502628,0.28230992,-0.25009125,-0.16386403,0.43214077,0.043117706,-0.008372283,0.06345809,-0.030403793,-0.055164292,0.029237395
0.013569983,0.4174277,0.29858604,-0.25677258,-0.17677261,0.44519085,0.052565914,0.049975257,0.10034969,-0.029058894,-0.024095075,0.06064436
0.007024344,0.37244245,0.25076798,-0.21948424,-0.15591396,0.38261423,0.072193146,0.086682074,0.13554312,-0.0005815629,-0.008425515,0.059191212
0.010469888,0.27050918,0.16384125,-0.1628923,-0.10284638,0.2573205,0.04124613,0.059558667,0.09816488,0.008812808,-0.020776864,0.03209962
0.0019143275,0.16023247,0.07864828,-0.08943793,-0.048466805,0.13186875,0.028723108,0.034953322,0.07876786,0.020972917,-0.026190883,-0.0038779147
0.002855282,0.06717024,0.04135842,-0.034245912,-0.025658052,0.053248975,0.018289419,0.021409817,0.049387127,0.0050539277,-0.06374473,-0.014529156
-0.011499826,0.020947924,0.021265374,0.004504454,-0.014160346,0.014322111,0.00060240173,-0.0019413357,0.03277626,-0.0075357486,-0.09891677,-0.02876868
-0.025774198,-0.0007825082,0.012790977,0.01716788,-0.0098428475,0.0028646826,-0.005393561,-0.014342811,0.021044588,-0.011011954,-0.1130433,-0.032644883
-0.016377635,-0.016285563,0.013257546,0.025478259,-0.008159418,-0.011729449,-0.020260448,-0.021009207,0.010005356,-0.009211928,-0.119810365,-0.045884214
-0.02693172,-0.016842784,0.014460949,0.028779568,-0.018597234,-0.0074214186,-0.012384482,-0.02432834,3.5127392e-05,-0.0116001135,-0.11696189,-0.03392163
-0.020565512,-0.010309391,0.021112148,0.023193406,-0.019599771,0.00059800775,-0.010446784,-0.012790467,0.001702019,-0.0074890507,-0.10436527,-0.026995882
-0.02282283,0.0015693965,0.025534863,0.014549207,-0.019321878,0.0069729243,-0.00477079,0.0048802034,0.0036191202,-0.0064870305,-0.10397715,-0.017085874
-0.019444559,-0.0013397104,0.026470626,0.014935292,-0.021751484,0.009550491,-0.0071104453,0.005227723,0.00845295,-0.0100175105,-0.10296552,-0.01767856
-0.024866419,-0.001256115,0.021444274,0.016729357,-0.018054124,0.003278676,-0.010716945,0.011000011,0.00949818,-0.012436879,-0.099939644,-0.01653123
-0.021152832,0.000162296,0.024390876,0.020725844,-0.02090104,0.009509785,-0.0017923778,0.0027227148,0.009012649,-0.0121468175,-0.07666521,-0.025247553
-0.012926548,0.0058190017,0.01945651,0.009354582,-0.0151423225,0.008083955,0.0023268475,-0.00024080276,0.0035714624,-0.00485508,-0.05999107,-0.015139343
-0.0043374663,0.0007516219,0.021326158,0.0054101297,-0.018310357,0.0075279637,0.010558288,-0.0064449944,-0.006124246,-0.002378505,-0.042918757,-0.020551424
-0.016212454,0.006974882,0.021660497,-0.0017136036,-0.028737556,0.008127557,0.017578084,-0.010963667,-0.009411301,0.008713891,-0.045953415,-0.012165925
0.012697033,0.028357232,0.012732529,-0.025802508,0.0015716312,0.015109713,-0.0121160345,-0.010503811,-0.0075477213,0.0016436334,-0.053000897,-0.010878238
0.016503002,0.012475052,0.0006852484,-0.017349912,0.008589954,-0.006443957,-0.1041803,-0.0967266,-0.043018185,-0.04448561,-0.10746602,-0.026813803
0.00041110438,-0.016604142,-0.0058610477,0.0064445063,0.016306879,-0.025111431,-0.09430928,-0.072502255,-0.038037956,-0.030873934,-0.12971325,-0.041983407
-0.01292257,-0.023013663,-0.007975092,0.011324165,0.0030850293,-0.030722652,-0.08440422,-0.06951271,-0.02554045,-0.021267993,-0.14888711,-0.041047744
-0.016841365,-0.02667188,-0.01035235,0.021188438,0.0035893936,-0.034687333,-0.071495764,-0.054174796,-0.0073037255,-0.017087111,-0.16365261,-0.04367647
-0.019399015,-0.04344649,-0.03200286,0.0316621,0.022136431,-0.06247296,-0.0700366,-0.071003474,-0.01938193,-0.028552575,-0.17336844,-0.04265056
-0.017472407,-0.05873345,-0.02113387,0.039849136,0.020266522,-0.05967111,-0.046128176,-0.04986764,-0.0005416148,-0.03181774,-0.18133184,-0.046612594
-0.027354361,-0.05634691,-0.03396401,0.040673327,0.010699339,-0.057514746,-0.029972525,-0.07769761,-0.03099195,-0.035203565,-0.18706307,-0.05438797
-0.025271112,-0.07042231,-0.033558484,0.05467918,0.02029357,-0.072369434,-0.010927326,-0.059468724,-0.010851453,-0.028392784,-0.17032565,-0.064678214
-0.0410374,-0.081758015,-0.024674335,0.07634268,0.008547768,-0.06546612,0.020626089,-0.050082017,-0.0017316275,-0.032293398,-0.17554164,-0.080432974
0.005619642,-0.07441402,-0.044892095,0.037469022,0.036399882,-0.06395974,0.040642627,-0.04295153,0.013028641,-0.028418995,-0.1446721,-0.075043984
-0.047439333,-0.10441345,-0.035183493,0.078094766,0.026418697,-0.068213485,0.09085048,-0.05029591,0.0045511727,-0.10157137,-0.1732787,-0.09179705
-0.07360998,-0.20323305,-0.11696396,0.14716075,0.051419012,-0.21795422,0.18557462,0.03532608,0.13022341,-0.084500015,-0.13570125,-0.078313164
0.058107376,-0.2746103,-0.17723802,0.15832807,0.2324048,-0.21174416,0.23027644,0.19666524,0.30787504,0.061221257,-0.026314387,0.0013519406
0.41393688,-0.29000703,-0.50934863,-0.054314144,0.5571485,-0.44939995,0.0053447983,0.21524315,0.52850217,0.5057191,0.3151338,0.23836794
0.64487153,-0.55162096,-0.7915653,-0.09996862,0.7786976,-0.7977662,-0.62557894,-0.58535427,-0.24244569,-0.010505357,0.22426797,0.2330174
0.45146927,-0.59630823,-0.6851686,0.0974772,0.5657563,-0.76025593,-0.7562971,-0.816514,-0.7782581,-0.49678198,-0.0662786,-0.015749833
0.19837621,-0.45441678,-0.4189796,0.1571691,0.28519604,-0.5504348,-0.36598665,-0.42937988,-0.40114394,-0.27171028,-0.032476153,-0.0027959908
0.13357133,-0.301774,-0.2586807,0.06785192,0.12235176,-0.3474414,-0.13518158,-0.24820127,-0.19760779,-0.0453581,-0.08329383,-0.114929125
0.03945772,-0.15571435,-0.09840086,0.07356915,0.06519047,-0.17044218,-0.00768154,-0.12714395,-0.113086335,-0.035391606,-0.16396855,-0.1359064
-0.0045344555,0.055175643,0.054895088,-0.0031183532,-0.035548896,0.07358658,-0.005052346,-0.12688419,-0.09385216,0.027260816,-0.12967943,-0.0058559366
-0.1060516,0.058819227,0.13258319,0.013518262,-0.11629839,0.16250491,0.12102681,-0.10612974,-0.108976945,-0.07367248,-0.3084758,-0.07281834
-0.11286668,0.14767289,0.1657738,-0.01724054,-0.15851879,0.19486812,0.13092765,-0.025472129,-0.06874479,-0.048827425,-0.33507803,-0.021457445
-0.070380084,0.20730974,0.16447206,-0.090686835,-0.1394359,0.1998386,0.19790053,-0.0026962692,-0.05221315,-0.02750346,-0.29890627,-0.0023796551
-0.071117036,0.26720598,0.1852268,-0.12390552,-0.13069762,0.25432375,0.2182675,-0.01971484,-0.009245784,-0.001039765,-0.23573129,-0.026743397
-0.06516745,0.2912525,0.21160437,-0.1531826,-0.15737803,0.30511904,0.32924363,0.06183034,0.070239216,0.077268146,-0.11303552,0.05033998
-0.05693832,0.37182873,0.2626389,-0.19472092,-0.1593036,0.39149073,0.41606972,0.11996049,0.1377866,0.098552376,-0.053341303,0.04292918
-0.06934461,0.39403406,0.31912386,-0.2019637,-0.21761648,0.4555042,0.42154515,0.11555987,0.10275608,0.065915294,-0.08477433,0.017136676
-0.06210486,0.41304457,0.32481757,-0.21040188,-0.21539937,0.46353418,0.42300493,0.1662976,0.11299531,0.09229016,-0.07854895,0.013508735
-0.046548814,0.37188354,0.29941517,-0.18433054,-0.19264121,0.41662905,0.3458233,0.16794737,0.061440375,0.047811016,-0.14131652,-0.013737645
-0.020781776,0.3245536,0.25461027,-0.17245895,-0.1409081,0.3380601,0.21602084,0.1618041,0.02964674,0.03149197,-0.122892745,-0.00826188
0.0006331391,0.21489719,0.14284106,-0.11895268,-0.07903142,0.19151479,0.10842831,0.13793693,0.01626995,0.027437199,-0.113867074,0.0015327975
-4.082918e-06,0.10665149,0.04916664,-0.051006623,-0.025531093,0.056702994,0.02160553,0.11796456,0.014357236,0.008697959,-0.0700361,-0.013202339
0.015450403,0.03826034,0.015684409,-0.028415455,-0.0014745764,0.009083046,0.0019460482,0.096517384,0.03344857,0.022534404,-0.055149443,0.005039783
-0.0066087437,0.015939152,0.02000262,-0.005726753,-0.0140768625,0.011619073,0.00047389788,0.08941706,0.017251903,0.014960726,-0.037412688,-8.643046e-05
-0.0046534985,0.0067253252,0.009447677,-0.0036458715,-0.011169539,-0.000778904,0.0037077756,0.08430974,0.027374368,0.022603463,-0.037826013,0.00056595163
-0.007084955,-0.0066328044,0.0067387805,0.004975632,-0.0049452838,-0.005235311,-0.0062684193,0.07723042,0.018333318,0.007894574,-0.038022917,-0.0051074033
0.01321408,-0.018570036,-0.005230141,-0.0002496515,0.023517827,-0.022980954,-0.036110293,0.07677215,0.02409766,0.014071579,-0.050721847,-0.005589073
-0.0020197118,-0.008718795,0.013101301,0.0034276233,-0.009724251,-0.0015166651,-0.03690163,0.06653693,0.02076038,0.017748065,-0.038257357,-0.0006828307
-0.009004562,0.02212967,0.026612043,-0.012602017,-0.027237223,0.018670004,-0.034290884,0.077532694,0.03441566,0.022340396,-0.0026403884,0.005604989
0.012027946,0.08360716,0.042254012,-0.05558106,-0.025520664,0.069656216,-0.04672238,0.060046192,0.022251088,0.01970348,0.035051033,0.012027617
0.0053898916,0.091730006,0.04637469,-0.05629657,-0.035340276,0.061388116,-0.07521967,0.023942234,0.004363053,0.017814264,0.025986427,0.010281681
-0.007529984,0.10005228,0.057685442,-0.05652941,-0.045959532,0.0768252,-0.07757264,0.013236968,-0.011943836,0.022744227,0.0335126,0.0028784904
0.0051539196,0.10556429,0.04800366,-0.06524236,-0.028470863,0.06774122,-0.12275096,0.0022989993,-0.016384603,0.017098792,0.030865092,-0.0014794123
0.009903006,0.10938773,0.05553295,-0.06477546,-0.03485391,0.078418314,-0.17996722,-0.020153573,-0.049740184,0.02918976,0.051112864,0.0020105066
0.0053111413,0.062658966,0.025555275,-0.040602278,-0.020060884,0.038979016,-0.19295554,-0.013266832,-0.053774223,0.039050706,0.05394596,0.0121056335
-0.008720844,0.034282193,0.01730993,-0.018509671,-0.010693844,0.02208938,-0.17415756,0.011804397,-0.06677011,0.037675355,0.08405117,0.010450556
0.0018411295,-0.011612545,-0.017678024,0.0027714227,0.024572482,-0.018246513,-0.14943132,0.014529856,-0.04212185,0.010372245,0.06943572,0.004153159
-0.0048777633,-0.006194896,0.0010770815,0.0064444607,0.014472502,-0.007011211,-0.1333821,0.00932247,-0.052794397,-0.0090574715,0.083147615,0.0064004194
-0.0041804034,-0.04008714,-0.023760745,0.014314874,0.034238413,-0.045037128,-0.109269366,0.0060980124,-0.030925222,-0.034862492,0.06495687,0.010892282
0.0036245538,-0.02283256,-0.006269742,0.008584303,0.027350929,-0.021137642,-0.10201581,-0.0037345116,-0.029953886,-0.027030654,0.08868767,0.024370668
-0.013553963,-0.04678107,-0.024156442,0.024515102,0.024303587,-0.04999624,-0.08481029,0.004842199,-0.010403727,-0.035980385,0.05602288,0.00817383
-9.7975135e-05,-0.01808835,-0.014547674,0.011953168,0.012472774,-0.019614108,-0.08959323,0.0045523923,-0.02328324,-0.015770923,0.06116115,0.009956385
-0.02830828,-0.05350557,-0.018951438,0.04199546,0.00028312625,-0.028904326,-0.055425864,0.0067996304,-0.036410775,-0.02607776,0.017643703,-0.046719532
-0.024326699,-0.027450845,-0.0014878985,0.029518526,-0.00835839,-0.008677974,-0.029267266,-0.0065246117,0.004984043,-0.021721099,0.049664747,-0.061661474
-0.09246812,-0.10631959,-0.028826946,0.089352295,-0.016360346,-0.044218283,0.032802034,-0.013787581,0.021955043,-0.045611825,0.10677193,-0.08388779
0.03469891,-0.28347397,-0.24266131,0.13618527,0.22677569,-0.27252194,0.00076713023,0.15369713,0.17408569,0.09317825,0.17969671,0.0036877561
-0.0074530765,-0.40927383,-0.26155728,0.26454186,0.14290097,-0.33665842,-0.021618487,0.098538615,0.23628454,0.2679473,0.27514964,0.10721592
0.44623092,-0.5338409,-0.7164826,0.03765968,0.63709426,-0.6958518,-0.4468977,-0.09595959,0.23763573,0.51322687,0.62319475,0.42110038
0.5050917,-0.8036544,-0.8527102,0.23444137,0.724205,-0.89243084,-0.69607794,-0.46371078,-0.37520257,-0.22339219,0.21603592,0.15335727
0.5112038,-0.7452183,-0.7810293,0.20230614,0.6180169,-0.84343994,-0.6218828,-0.47849777,-0.48091924,-0.30109543,0.22943625,0.11715696
0.43106806,-0.5428341,-0.64610994,0.06358162,0.50940096,-0.6818702,-0.5615885,-0.57269263,-0.63108754,-0.45982552,0.2624714,0.1658914
0.21794596,-0.4438779,-0.45889062,0.12292677,0.29245818,-0.51127905,-0.29019284,-0.3994228,-0.43440223,-0.47134733,0.055038046,-0.05287133
0.0153619405,-0.086898364,-0.052727047,0.073955916,0.007649707,-0.073017895,-0.08454023,-0.19150096,-0.15466733,-0.21817383,0.03754944,-0.012724819
-0.052627552,0.17162392,0.12344658,-0.032822248,-0.10976723,0.19133884,-0.003555093,-0.16950566,-0.062148653,-0.099798545,0.09399092,-0.010557408
-0.07207839,0.16502446,0.17343712,-0.027486319,-0.124572225,0.20796113,0.08769912,-0.10159517,0.0060765925,-0.08101751,-0.0039481334,-0.01438463
-0.10986042,0.17787948,0.19192031,-0.024944399,-0.14239354,0.23947951,0.15171275,-0.06508713,0.020106206,-0.05174522,-0.036020752,-0.021679081
-0.10710764,0.22315611,0.25099686,-0.059075966,-0.18804955,0.29110238,0.22232352,-0.0052236067,0.060852252,-0.00075937185,-0.036792234,0.0054487307
-0.1485375,0.28739515,0.28940564,-0.06914532,-0.23610276,0.35503018,0.284212,0.034884337,0.074824795,0.009975548,-0.04833743,-0.019817965
-0.14245926,0.41209406,0.3661714,-0.15758888,-0.2881101,0.46040007,0.31197006,0.09346937,0.134779,0.08389991,-0.016916808,-0.0048068687
-0.16222313,0.4707814,0.40777004,-0.18392874,-0.34486428,0.50514853,0.30155545,0.1003094,0.123838045,0.08794647,-0.022338387,-0.05277311
-0.14434685,0.50276166,0.4479994,-0.2123211,-0.34683147,0.55381584,0.26171196,0.09580372,0.13260464,0.10935644,-0.021450073,-0.032935925
-0.09980666,0.52243733,0.43676823,-0.23990086,-0.3145639,0.53944606,0.16022293,0.09164367,0.13268189,0.088294454,0.0005636457,-0.026344107
-0.010233175,0.40105906,0.23503253,-0.22087523,-0.13605191,0.32811442,0.101463154,0.10477476,0.1554735,0.13094176,0.06909439,0.0288214
-0.01376184,0.277607,0.1495642,-0.15896496,-0.09462666,0.20492816,0.07408783,0.114859655,0.16699009,0.15795124,0.13389467,0.041668665
-0.0004723109,0.1893594,0.10959419,-0.11951999,-0.056726586,0.13677838,0.04719504,0.11171545,0.17531563,0.19887112,0.14567581,0.041519944
-0.011349135,0.08845341,0.054854486,-0.055232096,-0.026628993,0.05504465,0.016010685,0.09252756,0.13899344,0.21168655,0.14506683,0.030030856
0.0012430506,0.016953625,0.01640362,-0.024666592,0.022443455,0.011019538,0.015475486,0.067190506,0.07287314,0.21219054,0.13716458,0.025246782
-0.011687927,-0.022068232,0.012230308,0.008618665,0.00949924,-0.0028296541,0.041309997,0.061220925,0.04590641,0.17791988,0.11292868,0.01879426
-0.017330598,-0.038363863,0.0010062527,0.025851924,0.007843099,-0.016803997,0.04882929,0.055368606,0.033883188,0.15763713,0.10299008,0.025369352
-0.020020429,-0.05060074,0.0033287767,0.0347572,0.002161595,-0.016107414,0.07970624,0.05504735,0.027560145,0.13584827,0.07444027,0.028632658
-0.015252216,-0.02550442,0.007640146,0.01892118,0.002199332,-0.010994218,0.082439505,0.050719883,0.031832792,0.13595755,0.068494074,0.04038928
-0.02545153,0.0069862884,0.02255651,0.015282884,-0.017691426,0.014922701,0.09438751,0.04974109,0.04777639,0.13195251,0.06065187,0.04183695
-0.028864339,0.03611342,0.0410037,0.0001686149,-0.028327474,0.030422332,0.093290664,0.045388073,0.07675801,0.13516212,0.0861505,0.055155832
-0.01657491,0.0686459,0.045028564,-0.027025996,-0.025370741,0.052696448,0.08674845,0.028195582,0.095526785,0.12981364,0.103278816,0.08578645
0.020245621,0.084915355,0.030517202,-0.06043187,-0.0048078983,0.048125263,0.030861465,-0.0037520537,0.087108225,0.122725084,0.11955677,0.11745053
0.017256808,0.08093069,0.029822594,-0.05650868,-0.0013517953,0.05429884,0.0016831497,-0.047383875,0.036877714,0.09030345,0.100891545,0.10677367
0.025732696,0.06090041,0.018312363,-0.05728269,0.016284196,0.023898311,-0.010359939,-0.053739507,0.018041806,0.07429241,0.088680424,0.09849029
0.010346819,0.029760199,0.021443294,-0.03127046,0.005682498,0.007820173,0.00353919,-0.047030494,-0.0012121346,0.04174893,0.07710929,0.0760853
0.024512326,-0.0010062937,-0.0041548894,-0.015499147,0.02977102,-0.020990305,0.01830287,-0.042624895,-0.0013308207,0.021957472,0.07270897,0.08325181
0.010382085,-0.01495149,-0.0055758785,0.006163014,0.027629735,-0.014498255,0.025825609,-0.038788266,-0.011109597,0.015762005,0.077065706,0.07757426
-0.0039349105,-0.02707298,-0.019537477,0.019436345,0.026255557,-0.026899757,0.051058516,-0.024447516,0.013492751,0.026304279,0.063070215,0.07286146
-0.011026878,-0.04714087,-0.018723896,0.032637138,0.020885475,-0.036384147,0.06421545,-0.013791961,0.0036084997,0.011126456,0.04996356,0.044792224
0.0057349806,-0.0706192,-0.03337004,0.038439218,0.046055473,-0.05994995,0.06716737,-0.019087559,0.013663934,0.014375593,0.033996478,0.036592934
-0.0076777805,-0.06767729,-0.023404649,0.049370483,0.022279905,-0.049732257,0.08537431,-0.03168701,0.015457157,0.006370941,0.014397366,0.016792484
-0.009456729,-0.053760417,-0.028300144,0.04774642,0.029185958,-0.04309953,0.106800005,-0.030605635,0.03244336,0.02246354,0.0050098123,0.031067612
-0.005370174,-0.012902594,0.010866721,0.02304198,-0.00911786,-0.0011311113,0.14104581,-0.025541695,0.029912136,0.00838909,0.0023301183,0.024615379
0.016741406,0.005148723,-0.02561396,-0.01591588,0.02911615,-6.237812e-05,0.16037193,0.0057997573,0.03841361,0.038620222,0.0037994368,0.03453201
0.01077684,0.011493311,-0.00043598187,-0.006530223,0.021874422,0.02328433,0.18406837,-0.0015492203,0.033330146,-0.0100199375,0.007272285,0.02422613
0.048684075,-0.0979709,-0.14627749,0.022613224,0.18196736,-0.1329753,0.20144884,0.07692656,0.0656053,-0.0013279539,0.0033257126,0.021873867
0.0505048,-0.2559545,-0.20401691,0.13213725,0.19026883,-0.22164722,0.26571834,0.2062697,0.18421122,0.0027299377,0.043555513,0.03724104
0.41323394,-0.35476702,-0.5377492,0.026636552,0.56154203,-0.46603855,0.26330614,0.51592565,0.5716136,0.46976325,0.31268302,0.17910099
0.5440117,-0.6526501,-0.833781,0.096472874,0.7326523,-0.82103354,-0.02847675,0.26337394,0.21112336,0.043126155,0.15301123,0.089016914
0.460393,-0.8039273,-0.8127007,0.29980105,0.633451,-0.8672136,-0.62142825,-0.7504745,-0.79889417,-0.7703929,-0.3475717,-0.25263503
0.30694497,-0.7276911,-0.7009188,0.32318953,0.4836318,-0.77232784,-0.49701244,-0.6905561,-0.7398325,-0.6952053,-0.23272483,-0.113999344
0.29503155,-0.55905473,-0.577617,0.16832967,0.4459023,-0.66834205,-0.30562484,-0.49612406,-0.5663904,-0.52608484,-0.15173483,-0.1175301
0.20354031,-0.22198766,-0.3198076,0.047726408,0.25325567,-0.33607635,-0.113268554,-0.28285933,-0.25977185,-0.3689355,-0.22381216,-0.20672092
-0.01710945,0.026076818,-0.03534412,0.039074305,-0.0083498405,0.008961681,0.032814022,-0.20931908,-0.13534148,-0.2570275,-0.22355574,-0.16909091
-0.08767721,0.1401401,0.1406607,-0.014074693,-0.12593697,0.1722258,0.1404046,-0.098963924,-0.058813594,-0.20930047,-0.2274319,-0.20407112
-0.0803127,0.19436215,0.16356236,-0.061019138,-0.11857144,0.211013,0.21889913,-0.065572485,0.0029437416,-0.16933794,-0.20154962,-0.18171592
-0.06610608,0.27784964,0.20621869,-0.115405105,-0.13449003,0.259856,0.24866901,-0.01720448,0.05648632,-0.0935347,-0.20638669,-0.16247626
-0.061904,0.34498,0.23255877,-0.16206294,-0.16976677,0.3091642,0.24090748,-0.03700962,0.022111474,-0.13161707,-0.23600584,-0.21000962
-0.13420251,0.41302833,0.32250842,-0.16413137,-0.26304954,0.39865646,0.25515622,-0.034446582,0.04793492,-0.0937569,-0.24232721,-0.25357905
-0.3268267,0.38608807,0.45925534,-0.035411224,-0.4398381,0.45685768,0.3527608,-0.0124627715,0.08305723,-0.061116107,-0.3433401,-0.32981712
-0.41310367,0.471832,0.5919386,-0.017253686,-0.53572637,0.58602,0.347813,-0.019014837,0.030899553,-0.04073172,-0.3588044,-0.37263024
-0.3733747,0.51459974,0.60539615,-0.07776018,-0.53752506,0.6303929,0.29207718,-0.034961615,0.019785032,-0.0014545036,-0.33382612,-0.3505281
-0.2540062,0.5109813,0.54056185,-0.14092793,-0.43240392,0.58431745,0.23162396,0.01949445,0.07508572,0.07650603,-0.20386924,-0.24992067
-0.09209649,0.48453316,0.3887833,-0.20430183,-0.24921,0.48391238,0.16345076,0.023126699,0.07138233,0.12995246,-0.07463559,-0.106924616
-0.016678907,0.34932277,0.2146041,-0.1705256,-0.12631764,0.29622066,0.09180357,0.0069962717,0.07795225,0.15307108,-0.013486709,-0.014732639
-0.003233388,0.22386388,0.13131797,-0.12379412,-0.085062765,0.16562134,0.051335763,-0.0017491189,0.055255417,0.13557175,0.0022769996,0.02505255
-0.0014368026,0.11811548,0.053507473,-0.07093422,-0.045235887,0.08707712,0.043043997,0.00448551,0.061736036,0.10450299,-0.013500524,0.0067934543
-0.013175474,0.07298674,0.045137953,-0.032062322,-0.032150034,0.0633338,0.030904682,0.03894975,0.05963741,0.0866207,-0.026665676,0.0027974995
-0.03006975,0.0832922,0.07049132,-0.027631365,-0.05912995,0.08513617,0.029636437,0.077589825,0.08248815,0.10957734,-0.024191247,-0.0053874142
-0.034198903,0.10984698,0.08122301,-0.05363554,-0.060118094,0.10280011,0.023962943,0.10227834,0.09309065,0.09344762,-0.016545057,-0.005046824
-0.010689049,0.11596754,0.0816492,-0.056576263,-0.07990315,0.12987307,0.038398348,0.08319153,0.12606439,0.066263154,0.0014887218,-0.02882493
