0,1,2,3,4,5,6,7,8,9,10,11
-0.01728344,0.12444887,0.09595222,-0.037456885,-0.046190348,0.09570047,-0.08075818,-0.13962355,-0.034018535,-0.017923832,0.032408178,0.058238696
0.03832181,0.08185719,0.031773016,-0.03498695,0.037601575,0.044134874,-0.052537315,-0.14425138,-0.06450742,-0.01591836,-0.035171606,-0.011716193
-0.018385846,0.105466224,0.07164137,-0.045600437,-0.049119804,0.082424104,-0.039650224,-0.12857498,-0.05748187,0.002827825,-0.025434345,0.011965854
0.006757038,0.111543976,0.0553467,-0.07178062,-0.042181324,0.068335444,-0.052959017,-0.1285396,-0.07514116,0.013565186,-0.024023656,0.014992122
-0.001697744,0.16009164,0.08137582,-0.09523026,-0.039395295,0.11270262,-0.08932865,-0.14103457,-0.086940266,-0.0023612436,-0.035774734,0.014717903
0.04416749,0.13613027,0.048561815,-0.123181194,0.009216359,0.075142756,-0.07914178,-0.12014927,-0.052890234,-0.0035646912,-0.07208148,-0.020123363
0.08191377,0.21928543,0.06291099,-0.18188094,-0.0038815653,0.13953559,-0.04008437,-0.097752094,-0.0045533404,-0.02679371,-0.07184248,-0.00020987168
-0.057104167,0.08220282,0.10363491,-0.026759056,-0.11205748,0.1270939,-0.06941412,-0.08445525,-0.10925613,-0.17537221,-0.16474049,-0.057041746
-0.0053980737,-0.37063676,-0.2774864,0.1973833,0.28928557,-0.35348532,0.0641507,0.26033342,0.15017194,-0.08969112,-0.11563444,0.000361525
0.21705428,-0.49760357,-0.44581962,0.18299697,0.474869,-0.44217452,0.078384236,0.2845845,0.44813493,0.20562313,0.121533796,0.15525965
0.6580433,-0.5300701,-0.763258,-0.12250012,0.79222655,-0.6554519,0.081369445,0.56967187,0.64656436,0.48682532,0.4164586,0.38729936
0.7129552,-0.7496773,-0.82429403,0.10070897,0.86049575,-0.82580274,-0.59285384,-0.41845438,-0.5072225,-0.48448768,-0.13072875,0.087145835
0.64878917,-0.626886,-0.62806803,0.014579141,0.7835563,-0.6904891,-0.6460849,-0.52283233,-0.60334754,-0.5709622,-0.19992952,-0.0034308003
0.71435344,-0.34067208,-0.49998683,-0.26854202,0.78296113,-0.51456517,-0.3663002,-0.14359629,-0.17635572,-0.20665276,-0.0058689853,0.0008347593
0.4717179,-0.44288498,-0.4895985,-0.037488453,0.61971784,-0.53114146,-0.17478597,0.0072633773,-0.1407968,-0.4095383,-0.3358078,-0.3838713
0.15356253,-0.041628383,-0.123001635,-0.042226814,0.23390692,-0.06934109,-0.12094365,-0.026551202,-0.0013278797,-0.2547203,-0.29022485,-0.27875096
-0.16516191,0.14120468,0.1567457,0.08616535,-0.11742234,0.2135888,0.11009402,0.009724509,0.018599264,-0.20725481,-0.3302918,-0.30383903
-0.20506127,0.32244083,0.2377933,-0.048003428,-0.28402677,0.32313338,0.109649755,0.002466049,0.01088151,-0.11329657,-0.28469434,-0.28196305
-0.26170227,0.41699374,0.34045744,-0.07053656,-0.36120692,0.44916263,0.08987923,-0.05156742,-0.06483326,-0.15600516,-0.33649477,-0.35223755
-0.29769188,0.47800392,0.4028406,-0.092874475,-0.42563626,0.48430458,0.08571146,-0.08595851,-0.11609775,-0.13250993,-0.35089085,-0.3661508
-0.3537204,0.46872854,0.421581,-0.05059272,-0.43904626,0.47169733,0.14063172,-0.11067447,-0.11521174,-0.09661409,-0.35342905,-0.35809547
-0.38337764,0.51057696,0.4618485,-0.061958127,-0.46376002,0.5161825,0.1337669,-0.10868776,-0.114488915,-0.07091982,-0.34290466,-0.33793557
-0.39749646,0.51419646,0.4822913,-0.060233593,-0.5284258,0.51771826,0.14598384,-0.06891595,-0.08586542,-0.057471484,-0.3394506,-0.3219144
-0.36527863,0.5191521,0.45802853,-0.08070985,-0.52170724,0.49274385,0.1201979,-0.03001832,-0.069786,-0.038560838,-0.31455672,-0.28876683
-0.28421965,0.5315255,0.45133942,-0.14944074,-0.49115217,0.47597325,0.064896844,-0.0055106133,-0.07153681,-0.016565152,-0.24141632,-0.21381631
-0.231279,0.49960616,0.4063131,-0.16858828,-0.43306124,0.4292693,0.025527978,-0.015703406,-0.07429385,0.000579061,-0.16831644,-0.14069365
-0.17896678,0.390007,0.33601296,-0.1361081,-0.353377,0.32988256,0.019695604,-0.020908196,-0.064352036,0.0030157752,-0.12902078,-0.11535992
-0.11937517,0.26832524,0.18864898,-0.08663041,-0.21490441,0.19725023,0.02474597,-0.027524672,-0.05426783,-0.01006764,-0.102690965,-0.108375594
-0.08774293,0.16800898,0.12619254,-0.0469155,-0.12559338,0.110732555,0.017286448,-0.014789173,-0.044723384,-0.029137015,-0.10211958,-0.100912526
-0.05433715,0.099381015,0.07286167,-0.021191416,-0.071264215,0.061394785,0.021215653,-0.013245289,-0.0325935,-0.031806983,-0.07979936,-0.08579928
-0.037067033,0.08588399,0.06346493,-0.027130345,-0.06572083,0.05009082,0.009093773,-0.011808092,-0.016119871,-0.027293053,-0.063115716,-0.058307044
-0.020999491,0.069913894,0.044838782,-0.024014799,-0.051476926,0.04751618,0.006101176,-0.01857079,-0.016017113,-0.02715146,-0.05217523,-0.05015903
-0.025860548,0.08859823,0.053217918,-0.042144984,-0.06074961,0.05648242,-0.020467259,-0.03394276,-0.029633585,-0.031531982,-0.044589993,-0.03150831
-0.01627212,0.10802204,0.06580235,-0.062234886,-0.055493146,0.08604431,-0.047379147,-0.04274816,-0.030794322,-0.025355246,-0.0234054,-0.01213286
-0.016625255,0.15119144,0.091128014,-0.087591045,-0.08034304,0.111450925,-0.12836906,-0.07666858,-0.054059368,-0.034381296,-0.011147853,0.018043706
0.0029319772,0.13827336,0.05784838,-0.08707158,-0.048382897,0.07798828,-0.15476668,-0.07925785,-0.04544906,-0.033415385,-0.019365458,0.013637196
0.011481537,0.1459525,0.071391806,-0.10559664,-0.049625963,0.0884435,-0.16835575,-0.07846836,-0.03334217,0.0027149618,0.0008697631,0.041875042
0.02160047,0.09318329,0.035474792,-0.08082054,-0.0185788,0.035782013,-0.14989147,-0.04462049,-0.023186553,0.0017988272,-0.019066896,0.026946351
0.006468589,0.08759056,0.04724289,-0.06808092,-0.03490393,0.046488956,-0.15557563,-0.05012314,-0.012494622,0.003964672,-0.021512255,0.03317346
-0.0012256557,0.03393047,0.03269456,-0.025079923,-0.019078393,0.016910017,-0.1181377,-0.030499324,0.009469584,-0.010140857,-0.045034446,0.001100366
-0.017209906,0.037367646,0.047304716,-0.017526416,-0.029466648,0.023092296,-0.11773072,-0.033502564,0.010080166,-0.003208544,-0.045183845,0.003239262
0.008330833,-0.010005046,-0.0048809648,-0.0011223597,0.031492565,-0.034268193,-0.096684806,-0.02058332,0.014247682,-0.015741296,-0.072560504,-0.023183178
0.010046158,-0.011644803,-0.003540136,0.0011853448,0.0289918,-0.02821298,-0.09241431,-0.021690778,-0.003682129,-0.010260431,-0.064327344,-0.012986379
-0.010581344,-0.043136857,-0.0030505918,0.035739057,0.011339974,-0.034477238,-0.06391204,-0.014230062,0.0062968545,-0.017547585,-0.07391768,-0.031501807
-0.02109788,-0.01048087,0.03243786,0.022909088,-0.030739017,0.004416083,-0.03794402,-0.0017586239,0.014601324,0.0009419657,-0.03865476,-0.0027629416
0.014479569,0.006106766,0.011727413,-0.005942012,-0.0014218679,0.0076093925,-0.020843817,0.02225148,0.040660884,0.006525144,-0.030592024,0.0038031973
0.0047034053,0.036782347,0.037876498,-0.022871187,-0.029272826,0.03868016,-0.028146306,0.0037701577,0.011803601,0.00924236,-0.0020976393,0.021164184
0.017299704,0.036381558,0.0077417064,-0.03543269,-0.016226415,0.02455869,-0.0154268285,0.017419774,-0.0015065521,-0.004936939,-0.012369219,0.010345686
0.025445305,0.118562475,0.046609297,-0.09596948,-0.04330997,0.09883228,-0.030478597,0.013072558,0.021878794,0.025120687,0.027549729,0.04832474
0.10472022,0.08838894,-0.014749244,-0.12565318,0.040831897,0.03145571,-0.033164673,0.05129346,-0.0061886813,-0.0021368898,0.015716061,0.052372187
0.0651612,0.12513313,0.024225691,-0.1331986,-0.037807927,0.06656328,-0.050668515,0.06741938,-0.029155675,-0.01045787,0.03250598,0.124516636
-0.014265149,-0.14553306,-0.061502315,0.050576232,0.08761142,-0.10935813,0.025405755,0.14595072,-0.03479074,-0.03476323,0.03394483,0.15024626
0.11476899,-0.3494983,-0.32092333,0.11754617,0.3439914,-0.34116563,0.14464375,0.298216,0.15233116,0.035751633,0.10022561,0.21193887
0.2791843,-0.39487317,-0.447396,0.07165954,0.4609572,-0.3757425,0.14343724,0.3787623,0.35381374,0.24558748,0.28917074,0.4045009
0.7082371,-0.5321545,-0.81729996,-0.14683573,0.80953157,-0.6722295,-0.020993877,0.52966726,0.5927986,0.45015416,0.588145,0.6424368
0.85447514,-0.67139226,-0.8656497,-0.0856011,0.86813784,-0.7892557,-0.5867861,-0.453998,-0.21158153,0.15059125,0.57145345,0.661896
0.73616695,-0.71344286,-0.7595573,0.004172973,0.7968804,-0.8019443,-0.514723,-0.55559886,-0.36288488,0.07753946,0.5282182,0.55130506
0.74881005,-0.45067835,-0.6216953,-0.21671374,0.7753918,-0.64087456,-0.44741336,-0.3924939,-0.15566926,0.15186201,0.36375254,0.3445676
0.40762797,-0.33768916,-0.36749485,-0.00900163,0.436971,-0.4088584,-0.15745407,-0.12511878,0.004164923,-0.09058945,-0.08202827,-0.10682911
0.055036157,0.034572765,0.0509209,-0.008852583,0.027564496,0.097988605,-0.120399244,0.015468027,0.038472775,-0.039918635,-0.11815906,-0.11052561
-0.1431149,0.14507213,0.16344258,0.04531555,-0.15914196,0.20515762,0.024918808,0.055964615,0.012558784,-0.07035277,-0.18078862,-0.17624032
-0.24425793,0.2780962,0.3162189,0.001961263,-0.34952533,0.3674651,0.05207768,0.05641861,0.024097234,-0.06537456,-0.1707411,-0.19769008
-0.26482642,0.33621955,0.34923866,-0.030380828,-0.4084114,0.43813643,-0.0033172378,0.011872884,0.025435995,-0.09434825,-0.16829322,-0.25344265
-0.2528908,0.36249754,0.3265406,-0.057849742,-0.367728,0.4379158,-0.023071822,-0.08879508,-0.027000267,-0.13639303,-0.20746955,-0.29097307
-0.23791726,0.38443664,0.35248104,-0.077219196,-0.37566936,0.43965545,0.09322784,-0.029200917,0.0028170943,-0.07438884,-0.20892315,-0.27067155
-0.23693632,0.40387422,0.35268238,-0.07132524,-0.37015986,0.4469415,0.15873131,0.051373642,0.016421765,-0.0346719,-0.26014048,-0.30303746
-0.26205716,0.40291417,0.38658354,-0.06364499,-0.41004902,0.43418363,0.2443346,0.15753719,0.08066051,0.07371032,-0.23277509,-0.29966393
-0.27966955,0.4101149,0.4385827,-0.048861407,-0.4629136,0.4531686,0.24986543,0.15110679,0.050087918,0.08443855,-0.20992678,-0.32234257
-0.13415979,0.3742797,0.26724428,-0.115319066,-0.29226503,0.31121746,0.23633955,0.16470675,0.047562744,0.15464246,-0.113886744,-0.28269324
-0.097589456,0.31937826,0.24201412,-0.10946434,-0.23964858,0.2760528,0.20494024,0.15413572,0.032228407,0.14756143,-0.029838938,-0.21688327
-0.09052897,0.2466417,0.17585085,-0.07650362,-0.20763607,0.19788933,0.13251115,0.1582881,0.01152337,0.120314404,0.017512746,-0.18304197
-0.07213596,0.13930076,0.07704161,-0.047030926,-0.14444591,0.095002994,0.056995198,0.17328277,0.050031994,0.17171994,0.09009452,-0.14534363
-0.07488264,0.08445867,0.06404273,-0.023382919,-0.10478355,0.07781424,0.011606898,0.14347361,0.04984699,0.18641387,0.16102184,-0.092772365
-0.006658774,0.058831573,-0.0002533719,-0.046274498,-0.02470531,0.02920837,-0.0148894675,0.13580942,0.07631171,0.20021981,0.21682103,-0.059261233
0.018191777,0.04160224,-0.020031828,-0.039118864,-0.0032569272,0.007113003,-0.028123725,0.11521211,0.068931535,0.16903166,0.23828667,-0.049045276
0.033181842,0.05195262,-0.019178562,-0.058079682,0.0031354446,0.017245414,-0.025151346,0.1084892,0.058418114,0.15265976,0.26211008,-0.03328265
0.0037047109,0.04387519,0.0017652921,-0.042825468,-0.027900286,0.015927121,-0.019094069,0.068311244,0.010780256,0.09351817,0.2377668,-0.044502307
-0.0015166295,0.062307213,0.014685489,-0.047941037,-0.024475385,0.039024655,-0.027040573,0.032653928,-0.013784278,0.07156207,0.23398538,-0.04213837
0.013411846,0.053545978,0.026408263,-0.056371816,-0.018404068,0.030421797,-0.03606747,0.019659378,-0.010709114,0.072119534,0.24411276,-0.03678855
0.03353475,0.04406716,0.0028322227,-0.0652859,0.0006935634,0.018960724,-0.047467522,0.011847828,0.0041406937,0.085069045,0.24943793,-0.03228002
0.040112,0.047357537,0.00032864884,-0.067108095,0.0058281943,0.021480273,-0.055582292,0.010227565,0.030107442,0.1258823,0.2652961,-0.016866133
0.066483945,0.030449122,-0.03491786,-0.07388328,0.04201218,-0.0054680854,-0.06567162,0.013110001,0.03626478,0.14922473,0.27529877,-0.016270284
0.06942561,0.0023070443,-0.03593389,-0.052210346,0.052661967,-0.024578404,-0.048679583,0.0035964027,0.034327235,0.12139106,0.24991119,-0.040432237
0.076315,-0.0046824366,-0.05407539,-0.054942153,0.066956446,-0.023820143,-0.037910555,0.021238096,0.04071148,0.11546488,0.24523243,-0.04483588
0.07233384,-0.045978487,-0.07063874,-0.030441789,0.081441864,-0.048145078,-0.028210368,0.008542705,0.015058078,0.07521275,0.21536388,-0.054609627
0.061903115,-0.06874008,-0.08101643,-0.0061021764,0.08683193,-0.05155317,-0.010650425,0.006075863,0.0009453632,0.056961354,0.1989042,-0.048940416
0.026458379,-0.057048567,-0.054130264,0.011262388,0.054196667,-0.034564797,-0.019932162,-0.025052572,-0.031489376,0.041426156,0.17389056,-0.049625296
-0.003106426,-0.046933353,-0.040461376,0.019681571,0.026049614,-0.026908115,-0.0048573846,-0.02094351,-0.028659265,0.051673103,0.14657594,-0.052532163
-0.0054599666,0.021642681,-0.0053202696,-0.016007097,-0.006321979,0.017017167,-0.012486823,-0.02225912,-0.007016573,0.112162635,0.1757944,-0.006785807
0.016240412,0.023620818,-0.023743268,-0.038278617,0.006918285,0.0016317214,-0.01117422,0.010259271,0.0024391077,0.14626071,0.16569835,0.009223813
-0.008498126,0.06394416,0.020868586,-0.046844766,-0.030167172,0.05418164,-0.0151635995,-0.018808633,0.0043578595,0.149612,0.14321826,0.029600896
0.008041684,0.036808636,-0.008239087,-0.04612361,-0.015421145,0.027055558,-0.0014953986,0.023082428,0.02772307,0.15912665,0.09613519,0.012337614
-0.011511701,0.008102702,0.027431222,-0.015021723,-0.02405972,0.022776434,-0.0026159063,0.002667401,0.012675211,0.16610336,0.07428813,0.029535558
0.031453885,-0.09893795,-0.06321961,0.03073293,0.042268347,-0.033301793,0.0074865967,0.06900093,0.02160462,0.13007297,0.046999708,0.031858962
-0.027055677,-0.17952573,-0.040916473,0.10210965,0.020498585,-0.053123433,-0.013617782,0.055932682,-0.0694693,0.16479345,0.11122261,0.12511885
-0.10445395,-0.47135097,-0.25191125,0.33116046,0.16093442,-0.3200287,0.079911634,0.18770954,-0.044997446,0.037860032,0.074386396,0.11912596
0.1476322,-0.45931843,-0.3983855,0.1787933,0.3527623,-0.34477526,0.17502105,0.26993483,0.188374,0.26823342,0.33650842,0.34959322
0.51988703,-0.5387991,-0.67327416,-0.086522415,0.65085703,-0.59473574,0.24801795,0.56369185,0.5357069,0.52777684,0.68196785,0.62723696
0.6742738,-0.6768929,-0.83508986,-0.084774554,0.7751414,-0.7750944,0.048535205,0.25915214,0.17829949,0.17243789,0.7324332,0.6850757
0.59807104,-0.62715244,-0.7715132,0.0397136,0.7527435,-0.70416653,-0.21796942,-0.39859834,-0.32682332,-0.35710597,0.42004806,0.4989477
0.4280226,-0.53050566,-0.55266416,0.08282866,0.5834497,-0.58153486,0.050276473,-0.19361871,-0.096659094,-0.17801689,0.26120266,0.32099578
0.27356443,-0.41125852,-0.42560893,0.111843474,0.40865,-0.4999015,-0.09411165,-0.2588128,-0.17446223,-0.13998657,0.009950633,0.047716606
0.085357696,-0.1969294,-0.15090252,0.1079995,0.15535761,-0.16461591,-0.16172542,-0.2080972,-0.079137295,-0.08159359,-0.05761846,-0.08398333
-0.07787382,0.007564787,0.08237272,0.07596839,-0.028179873,0.09293194,-0.088950776,-0.12305485,-0.016002059,-0.06537694,-0.061061308,-0.1014183
-0.20495151,0.09951564,0.23171718,0.09278139,-0.18857123,0.23307356,0.056314208,-0.047962092,0.048928913,-0.09781104,-0.16683541,-0.18300223
-0.24318267,0.16589224,0.27274838,0.078224875,-0.24518096,0.2972277,0.027304368,-0.049977075,-0.019819634,-0.08054084,-0.21070348,-0.1944424
-0.26328745,0.16644403,0.2969677,0.07599076,-0.29586396,0.2998823,0.029525692,-0.0048639905,-0.032661937,-0.07031627,-0.23952305,-0.22806242
-0.29649746,0.22184896,0.32644764,0.05805792,-0.33313826,0.32205367,0.013757499,-0.043864597,-0.04487993,-0.08526436,-0.25363117,-0.21448338
-0.15629642,0.37257603,0.33220476,-0.13437381,-0.3080824,0.37114784,0.0077489708,-0.009531792,0.014607552,0.029244833,-0.14237185,-0.09955992
-0.11740503,0.4353934,0.33788896,-0.18993266,-0.26995477,0.39835775,-0.057770766,-0.08119607,-0.035950333,0.022828173,-0.12025014,-0.066639885
-0.095426284,0.46901208,0.35353994,-0.24136528,-0.2869064,0.40884346,-0.021764696,-0.04817959,-0.025176607,0.04855744,-0.07903475,-0.060570415
-0.098077126,0.5180321,0.40028763,-0.27305213,-0.32842162,0.4671034,-0.036036737,-0.05025093,-0.016792951,0.06904541,-0.040901907,-0.03372477
-0.06684305,0.47566536,0.34479058,-0.26060426,-0.2764127,0.40186423,-0.023590721,-0.04395127,0.010931347,0.11469774,0.005603167,-0.01612233
-0.070936434,0.40636382,0.2941825,-0.20883262,-0.22199725,0.32652918,-0.029238392,-0.05325324,0.0070857108,0.15365511,0.033736967,-0.014057569
-0.099294886,0.30156922,0.22896153,-0.13293602,-0.19775851,0.25421658,-0.0032531423,-0.010245811,0.02588328,0.16787992,0.03606352,-0.019886183
-0.094253995,0.21051475,0.1503794,-0.09186143,-0.16080338,0.18064463,-0.019163445,-0.008128446,0.04085728,0.16428426,0.036658056,-0.00020017102
-0.05546234,0.12027037,0.084533915,-0.060199253,-0.09058963,0.106974095,-0.020758737,-0.0047613084,0.04151402,0.14477208,0.030179441,0.0049750423
-0.006038364,0.099872716,0.047435645,-0.06938952,-0.038357332,0.075785846,-0.041502524,-0.020535287,0.030808467,0.1337474,0.037839737,0.0391308
0.012569793,0.059438903,0.025209617,-0.051668763,-0.01665068,0.039612856,-0.040476132,-0.03447476,-0.00032401085,0.08998144,0.017745987,0.04242047
-0.001843672,0.057706572,0.046715476,-0.04224769,-0.042473175,0.060078666,-0.026264295,-0.021590661,-0.0014353208,0.07715182,0.015435406,0.050614722
0.0052375975,0.030018969,0.028556693,-0.026745543,-0.01863562,0.032356698,-0.01721424,-0.011459619,0.0059974603,0.06767887,0.007346592,0.048528668
0.0006382265,0.03467028,0.030674212,-0.026445769,-0.025314935,0.040896572,-0.011622392,-0.010012059,0.005975291,0.06881869,0.009827263,0.053923953
0.013144601,0.029042227,0.013258979,-0.027245589,-0.0018761344,0.0190813,-0.010346139,-0.0090473,0.021847688,0.06929433,0.012983558,0.060308147
0.009940648,0.034151055,0.0141297765,-0.024891682,-0.009164,0.023620972,-0.0092982305,-0.009330366,0.015484206,0.05438796,0.008884921,0.057517078
0.032261778,0.019107882,-0.005107645,-0.03219726,0.018437978,-0.002071614,0.004109204,-0.0033240616,0.02116555,0.03950229,0.00044868235,0.051172357
0.03592789,0.011648955,-0.006422218,-0.029414983,0.024138182,0.0004875334,0.00046757422,-0.0007283967,0.007330004,0.036316056,-0.013782141,0.04399481
0.022823144,-0.035750862,-0.020304393,0.005241152,0.046264365,-0.03554982,-0.004963738,0.0075425133,0.0018857084,0.028918166,-0.0389783,0.031869285
0.014371482,-0.060399942,-0.027864538,0.02808591,0.059420574,-0.04883247,-0.021643935,-0.010847067,-0.0076770782,0.0039590616,-0.06815559,0.018539596
0.0011159815,-0.049867995,-0.023937799,0.03392013,0.044131704,-0.040651724,-0.034242094,-0.011987558,0.0050137155,-0.0025311075,-0.08100308,0.01661374
-0.013125937,-0.026629325,0.0014635026,0.025785377,0.0061388295,-0.018468207,-0.029656118,-0.019210137,0.0060162544,-0.0062639285,-0.07394673,0.018870074
0.005877877,0.0037955437,-0.0011453703,-0.00076313363,0.011538949,-0.0062086647,0.0030843262,-0.0018676016,0.017983444,0.000803547,-0.060347892,0.027025163
0.020292383,0.04965636,0.03264738,-0.04006982,-0.019020557,0.040417876,0.010150045,-0.016997892,0.014509425,0.0003894493,-0.05008269,0.037161656
0.017973252,0.07117936,0.037307113,-0.053624943,-0.012051205,0.06380339,0.013214745,-0.01999324,0.006905306,-0.00801242,-0.060061384,0.028225262
0.016342726,0.11709003,0.07622798,-0.086980835,-0.039809782,0.097346455,-0.014793653,-0.03986813,-0.0023829378,-0.00373267,-0.041901123,0.039943468
0.01700038,0.0541927,0.010763828,-0.051285885,0.00066559203,0.025703734,0.015520303,-0.016927045,-0.007053226,-0.02606821,-0.084731854,-0.006977657
0.035460442,0.013810337,-0.0009779371,-0.03885728,0.028216641,0.0132294595,0.0038492698,-0.021766383,0.016543232,-0.00076633133,-0.0792945,-0.007990182
-0.00071226584,-0.059956707,-0.03605666,0.040580794,0.041676346,-0.041704588,-0.0023914594,0.014444377,-0.00040682033,-0.021579329,-0.13517758,-0.05194302
0.02888307,-0.07420407,-0.034021743,0.029398201,0.054051492,-0.053689875,0.008218937,0.039279867,0.02715591,0.026322026,-0.08938656,-0.028537756
-0.09705551,-0.26204616,-0.06995131,0.20266102,0.017155929,-0.1462971,0.025080035,0.09307656,-0.058646027,-0.050793488,-0.12411493,-0.06506027
0.027413305,-0.3910421,-0.32027602,0.22529705,0.25711152,-0.35386765,0.15401365,0.29074192,0.13822056,0.013866171,-0.033572316,-0.034513675
0.19274297,-0.39853534,-0.31318867,0.10689099,0.40416345,-0.35725006,0.17860611,0.43193305,0.3507617,0.19950601,0.16527429,0.09747949
0.6935862,-0.4299511,-0.68032795,-0.30102727,0.7672391,-0.5942005,0.08117545,0.6461803,0.6319168,0.40515533,0.4953518,0.3907791
0.72220373,-0.65026516,-0.732049,-0.16640694,0.7328744,-0.70861924,-0.34915808,-0.14994636,-0.23836316,-0.46543607,0.00830935,0.09660226
0.73432726,-0.5526677,-0.640167,-0.182037,0.72609085,-0.5650815,-0.35287657,-0.41458288,-0.3697745,-0.55175143,-0.0041377814,0.06896533
0.663838,-0.53497255,-0.70263296,-0.090770505,0.7757925,-0.71029377,-0.044595495,-0.036033977,-0.15473616,-0.45928246,-0.078547396,-0.094061285
0.3955922,-0.32809427,-0.47788244,-0.042201936,0.51287466,-0.48186,-0.07884486,-0.068762794,-0.06892046,-0.3368905,-0.10093285,-0.16731896
0.06030431,-0.055434056,-0.08557372,0.010462299,0.1334811,-0.077628076,-0.030981671,-0.025879158,-0.042202994,-0.26859602,-0.08421182,-0.10407311
-0.0679525,0.21388447,0.17676777,-0.06106948,-0.14838018,0.2560903,-0.027827958,-0.07434648,0.0011317581,-0.21916407,-0.11604054,-0.12790178
-0.12715447,0.27135342,0.22020733,-0.06308688,-0.220019,0.28049275,-0.052131563,-0.08157699,-0.04043004,-0.16568412,-0.15230204,-0.13867033
-0.1733089,0.32255957,0.2846604,-0.069716826,-0.27113682,0.3399729,-0.03611781,-0.07697387,-0.043199148,-0.11651932,-0.17610012,-0.12066823
-0.22527774,0.36376983,0.3507287,-0.075035565,-0.3568543,0.37421423,0.030652503,-0.022108214,-0.027394138,-0.04713417,-0.18111324,-0.10737266
-0.2906419,0.32975477,0.39508447,-0.0038156053,-0.41725212,0.37345552,0.034321062,-3.823079e-05,-0.04778604,-0.028247165,-0.23885065,-0.1784368
-0.42371863,0.14852932,0.30544892,0.19233403,-0.43177444,0.25876725,0.108269416,0.093278676,-0.0030346178,-0.033546243,-0.34822103,-0.31610775
-0.47213623,0.12677243,0.3313369,0.23215595,-0.46943986,0.26265416,0.11176003,0.06742442,-0.031626202,-0.05082404,-0.37215066,-0.35020244
-0.45038265,0.15264598,0.34032398,0.21588245,-0.4583662,0.28153294,0.09093241,0.095815435,-0.008902164,-0.021973098,-0.37301192,-0.35725066
-0.45297092,0.1876432,0.37711138,0.19586338,-0.47481093,0.3054937,0.11372537,0.059178855,-0.052993126,-0.020216802,-0.36356822,-0.34288666
-0.40932354,0.26361585,0.43056345,0.110148355,-0.49098983,0.3549745,0.13152792,0.06627332,-0.022117246,0.040774543,-0.29013872,-0.26086932
-0.30805492,0.27963597,0.38096595,0.034780897,-0.42054063,0.32560086,0.08533361,0.01652031,-0.048747968,0.08205813,-0.19601043,-0.17308088
-0.20144151,0.27008426,0.27254617,-0.025124284,-0.2929784,0.24691735,0.03725139,-0.009891875,-0.039176393,0.097711936,-0.12144213,-0.09984928
-0.093845315,0.23446298,0.16265501,-0.08115895,-0.16489254,0.17437114,-0.013324022,-0.059438948,-0.024400167,0.08156194,-0.08010108,-0.056446005
-0.013987187,0.15466696,0.08365176,-0.09133015,-0.07107857,0.08861278,-0.034390427,-0.056612067,-0.029797748,0.055698168,-0.07782151,-0.030059207
-0.019199405,0.09410795,0.06319191,-0.050347336,-0.055293158,0.05365383,-0.034811866,-0.038644493,-0.03655988,0.0052521788,-0.08228478,-0.018965725
-0.017263252,0.05454173,0.043722004,-0.03256274,-0.044855475,0.021534882,-0.026133953,-0.019572914,-0.022743087,-0.00011554733,-0.060353782,0.0020032153
0.012948102,0.042049177,0.021489635,-0.041543096,-0.018955575,0.021354357,-0.005205393,-0.010367282,-0.012635589,-0.0040283855,-0.032334916,0.017662775
0.035771586,0.034359396,0.0017830785,-0.047439918,0.009039745,0.012747732,-0.014295463,-0.005788602,-0.004467044,0.009893898,-0.009736751,0.03897287
0.03183861,0.031949766,0.0057337154,-0.047040448,-0.0005911952,0.021366749,-0.01491056,-0.0057678353,-0.0008705966,0.009511288,0.0002770936,0.04494502
0.032503225,0.022402901,0.00081250817,-0.041165337,0.010032892,0.008803915,-0.019827466,-0.0057168156,0.014879275,0.014851566,0.012948302,0.056934234
0.03327183,0.027725352,0.0023138728,-0.042493813,0.010594914,0.019105814,-0.0144652,-0.00712635,0.021968093,0.013281684,0.019633785,0.06418699
0.033637892,0.011758096,-0.009356122,-0.03070437,0.023963042,-4.709768e-05,-0.020270575,-0.018218994,0.014005993,0.018315312,0.024457697,0.07446663
0.0058106026,-0.019098084,-0.0025184602,0.001123287,0.016013676,-0.013751083,-0.011609312,-0.021078354,-0.005047232,0.01427567,0.022294432,0.06895524
0.0144689735,-0.022292633,-0.016573567,0.0033332,0.029255375,-0.0313926,-0.009650495,-0.019721191,0.005329266,0.024296831,0.030703567,0.07191567
0.0026494558,-0.0033765621,0.009416472,0.0044673583,0.0032226145,-0.0014986285,-0.00957322,-0.026660241,0.009582896,0.018325012,0.030688193,0.063700765
0.010874704,0.008467829,0.0069436543,-0.007438387,0.00079309754,0.0015333085,-0.0077539943,-0.031043634,0.010229122,0.004474653,0.029514883,0.048804633
0.045709286,0.03938116,0.0098451,-0.045435376,0.013951566,0.028777232,-0.0109853605,-0.025557678,0.011079431,0.0025302656,0.035711143,0.039603747
0.046389002,0.04089868,0.004003631,-0.047947876,0.014141982,0.02574591,-0.0047643473,-0.021539204,0.0025724731,-0.011451441,0.024834841,0.022047475
0.04347313,0.043173242,0.0028375778,-0.05732934,0.0023301616,0.028226443,-0.01021526,-0.024535626,-0.006508259,-0.030769281,0.017605312,0.005343953
0.031050924,0.014545398,-0.014880478,-0.0346023,0.026211038,0.0037884489,-0.029467806,-0.049689475,-0.033452865,-0.06628664,-0.009371632,-0.018241543
0.052741624,0.008567636,-0.032198675,-0.039404824,0.06240542,-0.012901599,-0.034652855,-0.04451291,-0.022111539,-0.07010226,-0.0047522485,-0.018040046
0.080626674,-0.020062871,-0.06919149,-0.03727427,0.103870526,-0.061646614,-0.009025717,-0.036262006,0.0033330359,-0.05294006,0.0052201236,-0.010687339
0.044273876,-0.040560447,-0.040982477,0.0030996697,0.062940344,-0.042768557,-0.0030368278,-0.04265872,0.017207086,-0.025865542,0.019706607,0.0058585117
0.04278679,-0.095458716,-0.06481179,0.023973318,0.07807438,-0.077696115,0.037776776,0.041759964,0.06990558,0.032113314,0.08068478,0.06770779
0.05177983,-0.17702076,-0.09446822,0.059635505,0.10232216,-0.096388415,-0.03245428,0.036923822,0.067603216,0.09698434,0.14893296,0.15037249
0.017015547,-0.45998544,-0.29393277,0.25300226,0.25674734,-0.3207345,0.07277361,0.14441444,0.079737425,0.07703455,0.20010713,0.17290157
0.21969506,-0.60031,-0.46498534,0.22649156,0.46661165,-0.4073757,0.065664805,0.25148812,0.20498575,0.12617889,0.3502137,0.3328655
0.46325827,-0.5737182,-0.7073414,0.11182795,0.61840236,-0.5597328,0.017196493,0.20967972,0.45119944,0.4498778,0.6527499,0.6093976
0.8835225,-0.7159798,-0.88842523,-0.11577149,0.94128966,-0.7949721,-0.0961447,0.19040759,0.4244806,0.52980626,0.8363587,0.73072445
0.6917065,-0.7716983,-0.8736206,0.17061499,0.7503359,-0.81883365,-0.20611876,-0.31422085,-0.59300226,-0.23377305,0.56051236,0.51042783
0.7738513,-0.37483436,-0.668939,-0.32013828,0.7569205,-0.6434795,-0.20332745,-0.04154726,-0.27036312,-0.011618795,0.68417794,0.55735254
0.5392913,-0.49324945,-0.49611568,-0.037913404,0.64204204,-0.5565632,-0.14124224,-0.11484936,-0.5172014,-0.3804729,0.20328678,0.09020947
0.34675908,-0.2325981,-0.2955406,-0.056761004,0.39963293,-0.26509818,-0.11823952,-0.05027222,-0.12869848,-0.23426238,0.101455,-0.07975955
0.094870314,0.016183471,-0.011810951,-0.03004924,0.06868382,0.03904936,-0.07790031,-0.14912443,-0.17246705,-0.13337326,0.03795791,-0.109842375
-0.0925324,0.12333295,0.16074868,-0.0032889722,-0.13001984,0.19982935,-0.0077075297,-0.10162474,-0.13486268,-0.08144,-0.02106722,-0.15597057
-0.16197577,0.14585783,0.19925617,0.022730397,-0.18677887,0.22140872,0.047727257,-0.06555258,-0.09078953,-0.040795617,-0.10122535,-0.2096174
-0.20197602,0.16906595,0.23677903,0.03831838,-0.24145098,0.2373759,0.05804012,-0.028118659,-0.076681115,0.014014311,-0.12356462,-0.2319545
-0.23879069,0.17501986,0.27257004,0.038428843,-0.29324082,0.240472,0.090014264,0.05035765,-0.029314876,0.07033472,-0.10043012,-0.22310847
-0.28705403,0.16316938,0.28725755,0.09078789,-0.33035845,0.23849878,0.12947422,0.11039008,0.010355141,0.11681986,-0.08843394,-0.2313635
-0.45155147,0.08158724,0.35925785,0.2410347,-0.44943,0.26711547,0.19102937,0.15328847,0.04938988,0.10342944,-0.15331385,-0.3066849
-0.49807814,0.07072111,0.37521207,0.28766334,-0.47969365,0.30835924,0.20186587,0.15498453,0.083997145,0.09277408,-0.18752128,-0.34147778
-0.5233454,0.08361453,0.4203641,0.30015215,-0.51858944,0.3479335,0.20196885,0.14110972,0.109588444,0.091643974,-0.18792619,-0.33213514
-0.4819058,0.11348033,0.4451676,0.25843668,-0.5288894,0.35757607,0.15687485,0.1019402,0.10647118,0.085164055,-0.16191892,-0.2823085
-0.32522666,0.12916827,0.28235367,0.16114104,-0.36420748,0.2424107,0.099398226,0.07438101,0.09115599,0.103128895,-0.107054204,-0.18084174
-0.20861937,0.16219637,0.22753814,0.053570174,-0.25362724,0.20621997,0.034587115,0.016260501,0.054764118,0.07906626,-0.06124276,-0.089692906
-0.13876322,0.12717518,0.15424943,0.016779404,-0.184285,0.14319845,0.007840611,0.016378615,0.043426152,0.07944648,-0.037152905,-0.036644503
-0.091829665,0.0738132,0.084451914,0.015626393,-0.09448908,0.07019313,0.008554209,0.025984038,0.06896177,0.09453341,-0.031476162,-0.017074216
-0.04367865,0.06440683,0.060839646,-0.012927508,-0.061543938,0.065589994,0.0033486765,0.025985274,0.099962845,0.16830531,0.013617237,0.032069612
-0.0066824593,0.024670996,0.009378608,-0.010247669,-0.003371493,0.015462516,0.0027573854,0.018246762,0.10134117,0.19322085,0.018942028,0.048550524
0.0043882043,-0.0016537476,-0.013042405,0.0027958977,0.019237932,-0.009839447,0.00042381324,0.012620963,0.07938668,0.20776884,0.017842848,0.057113845
-0.004652589,-0.015601892,-0.012476273,0.016116137,0.014942706,-0.0171902,0.018485995,0.018543985,0.0651885,0.19221604,0.006272449,0.053979132
-0.0010747209,-0.012126405,-0.014474485,0.01377462,0.019106612,-0.015178133,0.025659738,0.035386097,0.07591748,0.19218673,0.013234177,0.064753056
0.010180635,-0.017906785,-0.01793541,0.009486854,0.021819353,-0.020295175,0.01532227,0.029606078,0.07596275,0.18559226,0.011153647,0.063344285
-0.000112131704,-0.017678767,0.0006660931,0.02125715,0.0031736344,-0.010372679,0.012443801,0.019005407,0.07230741,0.16639517,0.011528992,0.06394203
-0.008849099,-0.022808779,-0.0016012266,0.027418783,0.006768979,-0.003614234,0.0042242836,0.019795336,0.066210136,0.15417811,0.0048312275,0.06304014
0.0032135504,-0.03337158,-0.012363631,0.025077624,0.028629933,-0.017252333,0.013225464,0.03255882,0.05674437,0.13596182,0.010577627,0.06784569
-0.0066908086,-0.028707393,0.002956126,0.0312334,0.008804448,-0.0073084426,0.0033336096,0.01908873,0.051050697,0.113732934,-0.00019735005,0.06300275
-0.0115435915,-0.0075955186,0.017667517,0.02433044,-0.005882284,0.0044618137,0.007030973,0.002980547,0.060573373,0.10890725,0.003807363,0.064453095
0.0053723482,0.022627268,0.00937908,-0.008946773,-0.001997888,0.0165137,-0.00092201866,-0.0053035114,0.05641343,0.10624181,0.0136077395,0.07544701
0.030841053,0.042081397,0.009382168,-0.043762773,0.0004194118,0.024604773,-0.01055333,-0.01676207,0.05017479,0.10776247,0.029110134,0.08934049
0.0370893,0.032355532,0.0066167694,-0.045075,0.011227373,0.021440996,-0.00894694,-0.015163005,0.032469627,0.09623529,0.026814457,0.07987882
0.053832654,0.040769063,-0.005330641,-0.06079355,0.0243533,0.022897763,-0.015032229,-0.00570436,0.040816832,0.085111946,0.030469593,0.07430391
0.04878169,0.02704623,-0.01056274,-0.04963635,0.021291632,0.005593855,-0.019255044,-0.0025620572,0.026642617,0.050133128,0.020682663,0.05155682
0.038027357,-0.0013393704,-0.015497878,-0.02696013,0.028624117,-0.008643389,-0.013687054,-0.009898128,0.0106204115,0.015084755,0.0035453355,0.025691342
0.049034834,-0.011539463,-0.028366547,-0.020081863,0.06374316,-0.023659026,0.0039805267,0.0013821032,0.030845683,0.012789667,0.009160108,0.024239149
0.061705396,-0.023921821,-0.047720134,-0.02404007,0.09550434,-0.040417235,-0.0026896792,-0.011974938,0.050777208,0.0069156177,-0.0031764805,0.028428767
0.07095773,-0.048188932,-0.054866903,-0.014408562,0.1194123,-0.044409733,-0.0026344461,-0.013902611,0.06960368,0.020381879,0.0058136852,0.05975498
0.066872895,-0.09580136,-0.10489045,0.024201086,0.13250491,-0.10057922,-0.03197867,0.031246014,0.10732773,0.024074983,0.002876467,0.08472066
-0.040239368,-0.2526938,-0.10995823,0.16295132,0.068158865,-0.16226971,-0.0133159,0.039592016,0.09744382,-0.03180508,-0.05114544,0.046086933
0.09634545,-0.39427045,-0.34890527,0.19316033,0.3494784,-0.37607664,0.052121162,0.17660163,0.1859583,-0.020985143,-0.011505127,0.09204438
0.21476391,-0.40143263,-0.45684832,0.14406554,0.4604094,-0.4049728,0.008906851,0.19728324,0.24946082,0.047938924,0.04580902,0.18035653
0.64470035,-0.36381254,-0.6987319,-0.22127722,0.768082,-0.56135565,-0.08878873,0.49717182,0.64378554,0.41311154,0.43626586,0.46284804
0.91355234,-0.4931635,-0.8479213,-0.4280248,0.8857431,-0.70697707,-0.68636256,-0.12549394,0.049584847,0.09543191,0.468618,0.61838216
0.84856,-0.7495939,-0.8348613,-0.1982945,0.86393636,-0.85801065,-0.7418029,-0.45859307,-0.64024836,-0.479669,0.039021485,0.3009287
0.8457948,-0.4269188,-0.70582676,-0.3811305,0.8441136,-0.65318567,-0.6275125,-0.3655748,-0.39363962,-0.25919095,0.09628189,0.2512393
0.48856285,-0.40569088,-0.47561568,-0.06491319,0.54039365,-0.5197241,-0.3106344,-0.1291683,-0.22914463,-0.2723071,-0.12559907,-0.098906994
0.20490667,-0.17841306,-0.21345182,0.005324034,0.24215145,-0.17607315,-0.19579515,-0.07847603,-0.033543035,-0.08535342,-0.064666845,-0.14455834
-0.11352441,0.016770255,0.104998484,0.09610689,-0.1020709,0.105410576,-0.033867024,0.033819716,-0.015126778,-0.045341924,-0.07793534,-0.14603004
-0.15354384,0.118086,0.19050059,0.05032459,-0.16767375,0.19779426,0.009574464,0.05864462,-0.00755029,-0.026690293,-0.08236034,-0.1616506
-0.24247532,0.11219443,0.23108885,0.10335953,-0.26515424,0.21548626,0.001486076,0.031095337,-0.06724902,-0.07371205,-0.11316972,-0.18473206
-0.29073265,0.16118333,0.29292083,0.09687424,-0.31130517,0.28636336,0.006217219,0.020267166,-0.009929085,-0.053416915,-0.08287881,-0.1764406
-0.3353733,0.18377462,0.33008954,0.11202798,-0.35559997,0.3116239,0.045451134,0.027815618,0.027229901,-0.047494862,-0.10505965,-0.19887848
-0.37704724,0.22885516,0.3612547,0.12259089,-0.37735292,0.341071,0.13275343,0.07663092,0.089963436,-0.0061093103,-0.11937693,-0.19435452
-0.39342567,0.29688293,0.41980594,0.0900051,-0.4273267,0.4045661,0.24578686,0.14389336,0.15231943,0.062647,-0.1130269,-0.1790695
-0.4449496,0.35498637,0.47601572,0.09401352,-0.49255183,0.44849384,0.3122218,0.17410146,0.15720475,0.09851785,-0.1319948,-0.18162158
-0.47768357,0.3728343,0.51921976,0.10510673,-0.5482407,0.48674622,0.35806802,0.18932791,0.1675025,0.12836486,-0.14073075,-0.18362121
-0.44247854,0.38746956,0.520954,0.05903609,-0.5543485,0.479557,0.3030451,0.15508386,0.13896924,0.15169355,-0.10276328,-0.1484606
-0.35862353,0.35731807,0.45018452,0.02226575,-0.45667478,0.4259412,0.27406636,0.122338414,0.12834866,0.17827386,-0.032092955,-0.071935385
-0.2534899,0.3096977,0.3334838,-0.028117733,-0.34631115,0.32891256,0.19197255,0.08930951,0.10610238,0.1820308,0.03036293,0.011089856
-0.15220933,0.24560934,0.22551237,-0.0734459,-0.24594507,0.2280785,0.059359938,0.000541484,0.059329037,0.14381889,0.07044894,0.07605539
-0.041662905,0.1510053,0.09430604,-0.0792224,-0.083006755,0.10222258,-0.031269215,-0.05366441,0.04088063,0.058121216,0.048261464,0.07737915
0.010302789,0.05916626,0.033601627,-0.05497364,-0.009253485,0.024378585,-0.06474728,-0.051686015,0.02368974,0.061015267,0.028808054,0.07501976
0.014674742,-0.036821857,-0.012280535,0.006182174,0.028451871,-0.04563264,-0.043278687,-0.030721983,0.00028233975,0.02989038,-0.0042243674,0.0499101
0.016970556,-0.019832354,-0.009879429,0.0030969311,0.019124381,-0.028077343,-0.03341365,-0.028219692,0.016328193,0.038180996,0.017547745,0.061005343
0.012101189,-0.012868833,-0.0026481375,0.002341642,0.01596814,-0.016469127,-0.009215409,-0.026435167,0.020988673,0.030253522,0.014990899,0.050494708
0.004030718,0.011044169,0.012075886,-0.004220234,0.00069932453,0.008577503,0.0029825289,-0.027034303,0.018009558,0.028148014,0.029495787,0.052861907
0.013272088,0.015914222,0.0039428584,-0.015701331,0.0026550572,0.00846969,0.0051220376,-0.017230574,0.024029728,0.025830489,0.024472706,0.054327324
0.012263437,0.009097459,0.005174905,-0.012281912,0.0009774202,0.0018596826,0.0041814074,-0.018449843,0.023279246,0.026995618,0.034268294,0.06217779
0.009462628,0.0012561679,-0.006100718,-0.0045953207,0.009804202,-0.002328051,0.013085879,-0.011323616,0.021994937,0.021857902,0.031274244,0.066515684
0.00073473365,0.0042249784,0.012462437,0.00028665317,-0.008995491,0.009491885,0.022947242,-0.01420276,0.01683063,0.022503633,0.037700377,0.06811677
-0.002497536,0.013639732,0.014537457,-0.00033828267,-0.011932339,0.022721635,0.038157657,-0.009071095,0.015373342,0.015739907,0.028978914,0.054743964
0.01119146,0.04944622,0.027865576,-0.034129374,-0.018675242,0.04608976,0.0263275,-0.019979794,0.0154502615,0.022728093,0.043008562,0.06546682
0.021040842,0.052570455,0.02181821,-0.051560834,-0.014622537,0.04279534,0.008704836,-0.025656842,0.019429214,0.0056998953,0.036561884,0.06240895
0.038886536,0.08087556,0.024326384,-0.076325625,-0.005697356,0.05835351,-0.032622237,-0.060340974,-0.002298668,-0.0009993352,0.041791093,0.06631027
0.058106802,0.050882816,-0.0055856556,-0.07367895,0.025035657,0.009006755,-0.05424258,-0.053750694,-0.02013556,-0.016701259,0.024872709,0.052537046
0.05927705,0.019640539,-0.022762343,-0.045006208,0.053019825,-0.0027236808,-0.068726145,-0.070260525,-0.03008395,-0.01929463,0.016715184,0.05129498
0.014488931,-0.03564831,-0.029913098,0.012841865,0.037274122,-0.049171392,-0.054163218,-0.043153755,-0.020274267,-0.032429878,-0.015351556,0.021737682
0.03564496,-0.021631401,-0.027088683,-0.004204716,0.049868,-0.037023213,-0.053231105,-0.057118516,-0.0077948608,-0.01674154,-0.00261899,0.025508732
0.059083845,-0.017986115,-0.034847923,-0.022283895,0.05904262,-0.051855054,-0.03157376,-0.030316453,0.013292238,-0.0024735257,-0.0011650072,0.025747105
0.045123167,-0.02946578,-0.034512974,-0.0066438224,0.061714772,-0.041894436,-0.023408527,-0.030889684,0.019286364,0.006602399,-0.018202074,0.013767084
0.034982607,-0.065854385,-0.04006447,0.011324977,0.08058621,-0.04434975,0.0110658165,-0.01679638,0.04959807,0.031233978,-0.0041728746,0.027175944
-0.04540587,-0.1559917,-0.07293559,0.122586936,0.06020778,-0.06331538,0.057427607,-0.009941671,0.07095197,0.007492475,-0.06884166,-0.036590386
-0.14154455,-0.25657025,-0.09325743,0.26129514,0.033562157,-0.11341739,0.12214226,0.00043242425,0.10717949,0.025781725,-0.07769741,-0.0680688
-0.0685308,-0.3955351,-0.17172633,0.30383965,0.05774839,-0.24460435,0.16737567,0.09193124,0.14849071,0.065649316,0.008999051,0.0051607285
0.07359221,-0.25897926,-0.16526327,0.13924229,0.10110536,-0.16706711,0.14065932,0.24781284,0.2364802,0.22247793,0.18167645,0.14537369
0.61442083,-0.2112461,-0.6829476,-0.26176715,0.72645116,-0.48063886,-0.28226045,0.1934014,0.10208151,0.09701042,0.30514368,0.31036586
0.8629421,-0.19247559,-0.79921997,-0.49997538,0.8397412,-0.59884185,-0.75134116,-0.31465894,-0.24809346,-0.22744112,0.21835372,0.37542567
0.8339802,-0.3387503,-0.8108419,-0.41915336,0.8382248,-0.69970036,-0.6150207,-0.16187797,-0.21727285,-0.21995337,0.13750058,0.2615991
0.85311097,-0.20820186,-0.74485487,-0.52278113,0.8414503,-0.62065256,-0.56434566,-0.16372544,-0.2555806,-0.19541106,0.20664375,0.2563723
0.6688848,-0.34888938,-0.63364565,-0.28645214,0.7555402,-0.6331918,-0.46277642,-0.19587341,-0.44147748,-0.44780013,-0.074367635,0.02930737
0.15387593,-0.06209574,-0.12232061,-0.049524337,0.121304244,-0.079488486,-0.12862466,-0.05679121,-0.10397628,-0.2039806,-0.058306985,-0.012031458
-0.21176122,-0.061086208,0.12433219,0.18040797,-0.16983017,0.09808166,0.06982959,0.04511829,-0.06577598,-0.13901511,-0.1558478,-0.186548
-0.24538544,0.013237024,0.1996937,0.15918937,-0.2238427,0.18009263,0.09165763,0.056055743,-0.0072401594,-0.06995922,-0.11735288,-0.1881764
-0.3439433,-0.035152912,0.2326573,0.24937263,-0.29348236,0.17038387,0.16084419,0.06655893,0.00054142997,-0.08886401,-0.16048586,-0.25025046
-0.37360957,-0.017558679,0.28222162,0.2484013,-0.3443657,0.19677597,0.21973759,0.09799734,0.05791411,-0.01854546,-0.13091332,-0.273117
-0.4124616,-0.01836862,0.30762917,0.2773485,-0.37603393,0.2055028,0.26118082,0.16033868,0.09236327,0.04578724,-0.110881485,-0.26844937
-0.49448007,-0.07425721,0.34734446,0.35071564,-0.45822206,0.21634275,0.24332802,0.14715903,0.04286703,-0.0072544888,-0.16599712,-0.32394764
-0.36931896,-0.09563083,0.23419692,0.28365597,-0.3404365,0.13080174,0.2165373,0.15598144,0.079632625,0.021411043,-0.124870166,-0.30514482
-0.39786303,-0.0800997,0.28354976,0.30078763,-0.3493964,0.19811882,0.15961766,0.10193086,0.07519953,-0.023057425,-0.13070883,-0.3011305
-0.38883528,-0.15158015,0.2286677,0.32749653,-0.32244,0.12226482,0.16493629,0.07398789,0.06987031,-0.042837508,-0.12766379,-0.28182662
-0.30589837,-0.07352665,0.2050636,0.24209657,-0.24698672,0.13454235,0.14976186,0.08242054,0.124249324,0.0037633516,-0.074040465,-0.17917271
-0.2058905,0.040115215,0.14897808,0.11477481,-0.19102676,0.14312525,0.07609777,0.06907041,0.11225961,0.04126497,-0.022967778,-0.07841016
-0.07445062,0.107596904,0.10465338,-0.0026284014,-0.09923911,0.102754,-0.07725756,-0.025463792,0.05212589,0.027684242,0.0033811135,-0.008180542
0.01944502,0.08077863,0.035785638,-0.039530158,-0.0018022452,0.029695597,-0.13961369,-0.08646071,0.006300088,0.005143244,0.009642235,0.013054756
0.030510362,0.021028938,-0.008929834,-0.018584244,0.03009199,-0.012960554,-0.10171398,-0.07405488,-0.01236837,-0.011436372,-0.000933731,0.005312156
0.021034315,-0.018554393,-0.013533998,0.003829479,0.021037377,-0.03046154,-0.074985,-0.03882427,-0.011118015,0.013822049,0.010350767,0.014715781
0.019180156,-0.02527843,-0.025961448,0.005161332,0.036616288,-0.035193756,-0.05850608,-0.02006971,-0.019657912,0.007102303,0.012442634,0.023090374
0.017676864,-0.0006534327,-0.013786219,-0.006732161,0.016364489,-0.014876762,-0.042847585,-0.008334866,-0.007789038,0.008493796,0.023926191,0.035452124
0.019684162,0.011811024,-0.0008909926,-0.014582844,0.01021768,0.004342361,-0.028160784,-0.009721359,-1.8525869e-05,0.0028811153,0.025118016,0.035412513
0.008409625,0.008734169,0.006242728,-0.009073578,-0.00565171,0.005583555,-0.023275904,-0.012450419,-0.0037443377,0.0064650327,0.033089593,0.04414645
0.00038520753,-0.0032344852,0.008889468,0.004345365,-0.005151854,0.004563961,-0.019274732,-0.016161893,-0.009280466,-0.0024092942,0.021714132,0.037357677
-0.0015258084,0.009602129,0.023023318,-0.0017615939,-0.023839734,0.017270966,-0.028829107,-0.018898811,0.0010306425,-0.00063268654,0.0305136,0.039765537
0.016924534,0.024910888,0.015893204,-0.022586863,-0.009691649,0.02504564,-0.03775419,-0.020418528,0.008254539,-0.0060539823,0.027449004,0.044794388
0.03101302,0.05819211,0.01991978,-0.049177296,-0.009387866,0.035767604,-0.073538594,-0.033996865,-0.009247115,-0.00032489747,0.03473151,0.05455952
0.032989472,0.062011626,0.024006288,-0.05994147,-0.008515965,0.040877894,-0.0842038,-0.032285757,-0.020305052,0.0073128156,0.032311656,0.04528768
0.03922522,0.07168546,0.026122022,-0.070320606,-0.0019100104,0.037469503,-0.11362542,-0.044813506,-0.036949534,0.0013420898,0.02608608,0.051685717
0.075824,0.092152424,0.0051292498,-0.10519844,0.01790047,0.03790551,-0.14595959,-0.050047535,-0.03566342,0.006400548,0.027365234,0.05335488
0.08993354,0.09298427,-0.008564282,-0.11022693,0.03530599,0.025775291,-0.23474212,-0.10970159,-0.09269279,-0.005644381,0.01919029,0.06467605
0.07549832,-0.0007877834,-0.046539113,-0.054431148,0.06973022,-0.038851824,-0.17772302,-0.020355327,-0.03793913,-0.009004524,-0.007854076,0.018511118
0.07690565,-0.009017093,-0.06047049,-0.05118478,0.07146326,-0.051538568,-0.20773382,-0.054064855,-0.03697334,-0.0035736058,0.0020112703,0.030983862
0.057302095,-0.05368328,-0.0661231,-0.010263432,0.08848117,-0.080606356,-0.15276851,-0.0098315235,-0.0006818585,-0.017291043,-0.021153802,0.0023983382
0.065055795,-0.0051608086,-0.034416616,-0.04192306,0.060994033,-0.034809824,-0.16162166,-0.037869602,-0.012774773,-0.0014789533,-0.002671782,0.02310833
0.06052246,-0.050568484,-0.05269681,-0.0010470459,0.080035254,-0.065968916,-0.116931364,0.0069176555,-0.010943389,-0.0227198,-0.039849818,-0.020023556
0.04872638,-0.061653174,-0.02688317,0.0029098033,0.04738566,-0.041824292,-0.12705252,-0.00015691482,-0.005501425,-0.027915109,-0.038262818,-0.010423196
0.025042422,-0.11711758,-0.045046985,0.035624124,0.03591903,-0.069634974,-0.111863755,0.05934621,0.03809921,-0.006419953,-0.03978533,-0.004625197
-0.026095044,-0.1836144,-0.068698406,0.109627604,0.04911986,-0.12149666,-0.1256828,0.08821887,0.016761985,-0.020351062,-0.05785797,-0.010464075
-0.066730864,-0.35877335,-0.20620543,0.24353057,0.18835486,-0.30334496,-0.017242268,0.18463232,0.04149657,-0.04981189,-0.084765755,-0.057224814
0.011569531,-0.40875953,-0.25416145,0.24458355,0.27363682,-0.3327743,0.011094464,0.15174614,0.055636276,-0.012019026,-0.07883871,-0.037605725
0.3311884,-0.3667042,-0.45892867,0.0829792,0.5691919,-0.40489417,0.17434284,0.46466094,0.4054735,0.23272063,0.07628336,0.11807439
0.72312284,-0.5308347,-0.8505988,-0.11784123,0.88244134,-0.756919,-0.16270775,0.42918572,0.33942282,0.22489773,0.16940983,0.20865533
0.8358361,-0.6747296,-0.8689168,-0.13246845,0.92828673,-0.86497736,-0.6963962,-0.29502267,-0.47961935,-0.28686494,0.080863915,0.21329978
0.78546166,-0.5378214,-0.74692243,-0.1852511,0.83545077,-0.8015944,-0.63820195,-0.3780645,-0.5522698,-0.3410897,0.03517244,0.09617478
0.5317377,-0.3897266,-0.5858474,-0.10723859,0.5974411,-0.6350146,-0.37345064,-0.1905039,-0.3040477,-0.18610445,0.0012659412,-0.10418634
0.21377906,-0.17935881,-0.28000277,-0.03127285,0.24427404,-0.26361072,-0.24189933,-0.11250292,-0.15400288,-0.07616024,0.026623845,-0.07326232
-0.028167807,0.016159594,0.04798582,0.033352315,-0.015247284,0.07719034,-0.105786145,-0.052274395,-0.14506991,-0.06524655,-0.025793426,-0.05508868
-0.13320917,0.10104925,0.17512591,0.03963068,-0.176893,0.19736277,0.008073987,0.015204959,-0.10102813,-0.03428549,-0.024996422,-0.018313482
-0.16159602,0.15511543,0.2422901,0.0129962675,-0.22601113,0.25806424,0.10129042,0.06462212,-0.01698193,-0.0018540286,-0.023277644,0.016459377
-0.24599501,0.14606264,0.28949443,0.055368498,-0.3090062,0.29345062,0.1672202,0.093440905,0.013440233,0.031295806,-0.047228165,-0.009997012
-0.2827382,0.17858785,0.32408577,0.057342254,-0.3479625,0.32306036,0.2172957,0.13490753,0.040055532,0.060671303,-0.046865024,-0.007916918
-0.31769758,0.20066679,0.38179255,0.061753996,-0.38182652,0.37710357,0.26739526,0.13583086,0.044873487,0.03725249,-0.08319482,-0.03481242
-0.31283164,0.27091238,0.40526426,0.030439526,-0.41174543,0.40067044,0.28310132,0.1506107,0.10101287,0.07128352,-0.088578485,-0.030900981
-0.18357098,0.25297222,0.25276226,-0.03166022,-0.281954,0.2829609,0.30084574,0.1741252,0.11840761,0.075092584,-0.1028418,-0.03155258
-0.15665369,0.27887234,0.27767295,-0.055199884,-0.27982888,0.30557716,0.28651425,0.16767617,0.14192604,0.10065919,-0.07288714,-0.0013147006
-0.2044409,0.21812704,0.2731973,-0.0077795964,-0.32551306,0.26496673,0.2808149,0.1785143,0.074405536,0.06740327,-0.10871502,-0.034254573
-0.18975452,0.17313609,0.2513714,0.009431723,-0.30186105,0.2270017,0.25476304,0.20388794,0.07398619,0.06353244,-0.07313091,-0.0007248372
-0.11609467,0.083759375,0.13745634,0.010743592,-0.18203431,0.086541295,0.1257598,0.15669745,-0.0009939,0.025283653,-0.07906761,-0.0013595019
-0.04147837,0.051906243,0.06325439,-0.0132303145,-0.07204297,0.01996646,0.012452349,0.095660806,0.006182205,0.022696853,-0.043686885,0.013247678
0.012261426,0.032381423,0.026893666,-0.032120757,-0.016055059,0.0015342685,-0.06658421,0.020226955,0.0033094063,0.021717247,-0.016759036,0.026848424
0.014946581,0.007870138,0.010835722,-0.012565237,0.003449414,-0.009579883,-0.06268517,-0.0060172286,-0.009651244,-0.0018875226,-0.018813012,0.009429609
0.02014317,0.0023433063,0.002900742,-0.0139035545,0.010700945,-0.015735622,-0.073125154,-0.011202151,-0.005757332,0.0076798424,-0.012007954,0.008456301
0.00092165347,-0.009888517,0.0074702464,0.003860766,0.0042147283,-0.008865671,-0.06560208,-0.012042882,-0.01904992,0.0035596527,-0.008990012,0.00062098866
0.007789471,-0.007551996,-0.0006032996,-0.0011503836,0.009971101,-0.014801189,-0.061714828,0.001895316,-0.008148437,0.0073066466,0.0016361438,0.0038792081
-0.0029575033,-0.008979421,0.009597601,0.010208486,0.0002806345,-0.0052882964,-0.059972897,-0.014469205,-0.009290587,-0.0022022557,-0.0057900175,-0.00750777
-0.012009944,-0.017696094,0.009805286,0.01888474,-0.0066574267,-0.016151633,-0.03972213,-0.011729358,-0.0022009946,-0.00039046071,-0.003084558,-0.010783524
-0.012065609,0.010971614,0.026218265,0.0035741723,-0.027165234,0.020261914,-0.0275769,-0.017017618,-0.002846934,-0.0047059655,0.009157485,-0.0044835275
0.010492087,0.018055378,0.013488034,-0.013240367,-0.014057943,0.009963756,-0.012520272,-0.016865348,0.0035970733,-0.0005689319,0.014771399,-0.010604958
0.0071410197,0.031894695,0.027780622,-0.020007553,-0.028980205,0.02965882,-0.00229037,-0.026870267,-0.005223362,0.0037928764,0.018631298,-0.008261292
-0.0054645753,0.037779193,0.030922465,-0.022623643,-0.037574545,0.035077572,-0.011949936,-0.030648073,-0.0021323897,0.0037346408,0.016728472,-0.0007900088
0.012732274,0.05801744,0.029105276,-0.044435613,-0.019797374,0.045332823,-0.048281386,-0.037245244,-0.0036931895,0.008313347,0.02666203,0.010494294
0.03303301,0.047315184,0.00010192767,-0.040486217,0.0089049805,0.011756295,-0.10225521,-0.07112259,-0.0278476,-0.0047135893,0.010913507,0.0027174354
0.00842355,0.0030807853,-0.009903561,-0.0035177767,0.016967129,-0.014304052,-0.0712984,-0.057990767,-0.021377115,-0.012642964,-0.002989837,-0.013054698
0.012982326,-0.016241893,-0.025876533,0.005778634,0.037520774,-0.03168825,-0.0650527,-0.0582394,-0.01673352,-0.0010162555,0.008271814,-0.0042029163
0.01145229,-0.048547268,-0.041116327,0.02766815,0.054706443,-0.05586165,-0.052859932,-0.063880175,-0.02111851,-0.011711383,-0.0007146066,-0.014829699
0.00154235,-0.052623473,-0.038076892,0.033936515,0.046560757,-0.05442638,-0.030401718,-0.059331,-0.008127343,-0.008674128,-0.010059362,-0.015788006
0.005397104,-0.02572601,-0.029499717,0.02166438,0.04181763,-0.034802094,-0.027762242,-0.06392467,-0.0057576,-0.014292732,-0.014654709,-0.012233803
-0.010522807,-0.0038183108,-0.0143685825,0.010015862,0.0054002237,-0.012730372,-0.031996027,-0.046064153,0.0005826466,-0.01306227,-0.026781924,-0.009560088
0.020366441,0.006918001,-0.02181628,-0.024150869,0.02305179,0.0042114602,-0.048601404,-0.047447935,0.025165081,-0.023747813,-0.038170792,-0.007670122
0.031864278,0.008454738,-0.05026464,-0.043943718,0.050279576,-0.024819616,-0.07642822,-0.084089845,0.00262288,-0.03071261,-0.0698507,-0.014347978
0.076348394,-0.01730347,-0.110199764,-0.05637119,0.1694335,-0.068352535,-0.023984594,-0.054388955,-0.013289917,-0.009822447,-0.05373311,0.024290055
0.0986374,-0.36898908,-0.3531194,0.1773272,0.39688015,-0.39055026,0.20502721,0.20921244,0.08765137,-0.043467887,-0.118853025,-0.045221385
0.20534377,-0.621222,-0.56810814,0.22094947,0.43770736,-0.6767609,0.28277826,0.25399053,0.13682394,-0.02840424,-0.12066448,-0.06697362
0.3156038,-0.61450016,-0.58255726,0.1339399,0.43693352,-0.7374327,-0.26233402,-0.35147145,-0.17899457,-0.13823497,-0.07654237,-0.002944863
0.30645636,-0.37144607,-0.33149153,0.0009448067,0.31576326,-0.48256364,-0.48361087,-0.586393,-0.39355287,-0.20879035,-0.07953006,-0.0016343007
0.07765557,-0.1830847,-0.06182623,0.09290527,0.13887173,-0.1438907,-0.21991947,-0.39016396,-0.35385022,-0.32260698,-0.3016994,-0.15927626
-0.027313497,0.006343769,0.094726905,0.023208741,-0.03529594,0.08817002,-0.022834746,-0.16892853,-0.08225832,-0.14235827,-0.23254335,-0.095405504
-0.11632585,0.08123353,0.13290586,0.018890698,-0.075544715,0.15898117,0.044653647,-0.1466742,-0.06258604,-0.10189557,-0.24704729,-0.08711906
-0.12209074,0.14967749,0.13571426,-0.024632262,-0.1134772,0.18113755,0.037990257,-0.11209516,-0.0431798,-0.057038922,-0.2298314,-0.059929978
-0.104727015,0.1808384,0.14498752,-0.06607596,-0.122936144,0.18597743,0.07679234,-0.09708972,-0.052299075,-0.06759517,-0.2304205,-0.05333431
-0.11840641,0.22883072,0.16255525,-0.074587256,-0.1519185,0.22938848,0.10579125,-0.08390573,-0.034523316,-0.047091972,-0.22865398,-0.049981423
-0.10984952,0.2717059,0.20247984,-0.11639503,-0.18142,0.26817662,0.106449544,-0.08488521,-0.04922677,-0.032823883,-0.1972262,-0.035796404
-0.11816176,0.3083797,0.22389041,-0.13537642,-0.20122224,0.31594315,0.073362,-0.09062697,-0.03816255,-0.044180892,-0.17331488,-0.035591837
-0.05443743,0.37190545,0.2607,-0.21577221,-0.19797762,0.3888973,0.01666939,-0.08899798,-0.03729739,-0.03434693,-0.10044221,0.0018161237
-0.03203063,0.40400922,0.28066146,-0.24071763,-0.19760124,0.41327783,0.002904851,-0.04125247,0.019065764,-0.026104772,-0.058527566,0.016128201
-0.027508475,0.4062382,0.29586703,-0.24632953,-0.20723309,0.42090428,0.018081633,0.009218536,0.0665755,-0.018543031,-0.027327817,0.0270398
-0.037016086,0.3566654,0.24937798,-0.20877461,-0.1876121,0.35708755,0.04408662,0.04422636,0.11026868,0.0089992955,-0.013223207,0.023001488
-0.033299197,0.2529499,0.1673346,-0.14735667,-0.13150859,0.2357897,0.031285346,0.03389273,0.08381012,0.017849918,-0.023115568,-1.7323531e-05
-0.025863618,0.14476103,0.079581946,-0.07332512,-0.060217056,0.12046039,0.024399376,0.019809213,0.0698479,0.02036,-0.030027233,-0.01697999
-0.01747619,0.061394356,0.04080904,-0.021627551,-0.02967695,0.044242166,0.011948749,0.010594975,0.043867882,0.0009211991,-0.053910475,-0.025423767
-0.025746401,0.016066212,0.018130934,0.014325635,-0.0141217485,0.008366458,-0.010406111,-0.013658618,0.031757925,-0.010723516,-0.080498904,-0.034124866
-0.0315853,-0.004638562,0.010142067,0.0267322,-0.004196236,-0.004422713,-0.019095976,-0.027556246,0.021290101,-0.012597834,-0.093314484,-0.03814336
-0.021476343,-0.01895957,0.009863926,0.03392245,-0.003589564,-0.018001357,-0.03350562,-0.035681523,0.0047650784,-0.015465106,-0.10220752,-0.045087107
-0.026944667,-0.01955513,0.012363942,0.03654941,-0.010475662,-0.013618227,-0.03103146,-0.03598318,-0.0015663989,-0.015337474,-0.09812273,-0.03767737
-0.021255124,-0.012294594,0.018670658,0.029399412,-0.012846969,-0.005850954,-0.026217923,-0.026329424,-0.005211504,-0.013918284,-0.08999072,-0.030180823
-0.020587351,-0.0020867288,0.023314899,0.02099003,-0.011657185,-0.0004487501,-0.024010684,-0.008854551,0.00022036582,-0.010729302,-0.08637826,-0.023113435
-0.021031506,-0.0027861912,0.025370894,0.020556394,-0.017446036,0.0034497231,-0.026688835,-0.00782641,0.00088061765,-0.013824945,-0.08499059,-0.02263188
-0.02486724,-0.004515454,0.02120381,0.022697423,-0.0137793105,-0.0020538545,-0.030986961,-0.004354112,0.0043386593,-0.014615695,-0.08262647,-0.022703424
-0.02171962,-0.0017677732,0.02364192,0.02466212,-0.018089803,0.006590003,-0.024550162,-0.014711903,0.0009189211,-0.013961415,-0.06729637,-0.025238393
-0.0137241045,0.0024725385,0.019106591,0.015645027,-0.015513239,0.0032036505,-0.017538197,-0.016674716,-0.004882984,-0.009269847,-0.052953944,-0.019607114
-0.007702654,-0.0037193354,0.021266975,0.012914472,-0.016992182,0.003358996,-0.006280695,-0.021926787,-0.013863707,-0.008352641,-0.04260803,-0.02359912
-0.01457601,0.0028329697,0.016264236,0.004078239,-0.018803935,0.0022534523,-0.0023335982,-0.025724642,-0.013599921,-0.0020570718,-0.042607494,-0.018734714
0.010570992,0.019634292,0.009701911,-0.019866407,0.0059951805,0.006395257,-0.030099817,-0.027951634,-0.009345302,-0.0072382465,-0.04664889,-0.01223084
0.012908781,0.010021681,-0.0017053485,-0.012656923,0.01563068,-0.009047823,-0.11455991,-0.103287265,-0.039543424,-0.046649955,-0.088321924,-0.027671386
-0.0019209594,-0.021022767,-0.0095303655,0.014490971,0.031431336,-0.031053096,-0.107971594,-0.08758122,-0.031512935,-0.038219295,-0.112240955,-0.04395307
-0.014401628,-0.027258873,-0.014467172,0.021249069,0.020518348,-0.039680067,-0.099824645,-0.08394303,-0.024936903,-0.03193362,-0.12610905,-0.042711966
-0.021795478,-0.032847576,-0.014803618,0.031191403,0.0189773,-0.043928936,-0.0858804,-0.06733891,-0.0053043254,-0.02408548,-0.13688752,-0.04533215
-0.021303281,-0.045301177,-0.03333929,0.040320024,0.03907634,-0.06557724,-0.084527455,-0.08446012,-0.019525452,-0.033664633,-0.14770904,-0.04623066
-0.022129208,-0.057327062,-0.021494675,0.046392307,0.033796065,-0.06431104,-0.058926582,-0.06797825,-0.0070695262,-0.03649777,-0.15353914,-0.050555333
-0.031043623,-0.060152225,-0.03303592,0.049323805,0.023790736,-0.060518462,-0.051172413,-0.08965386,-0.026828527,-0.035307776,-0.1589691,-0.0572295
-0.032053843,-0.07388644,-0.030173562,0.06203296,0.029846597,-0.07181737,-0.025346179,-0.069774605,-0.018916704,-0.02954069,-0.14893006,-0.06007759
-0.03903277,-0.086291626,-0.022508793,0.07807518,0.024872378,-0.06320083,-0.006159474,-0.06107267,-0.0032114834,-0.034718417,-0.15314506,-0.07500318
-0.0050242473,-0.08064119,-0.035039216,0.047977425,0.037746325,-0.05794226,0.013366491,-0.048113458,0.01005578,-0.031730834,-0.13134097,-0.07545249
-0.052727316,-0.11972613,-0.027726416,0.09755738,0.032094553,-0.069821194,0.07263536,-0.048475645,-0.0011695921,-0.0872476,-0.16409247,-0.10241145
-0.08705135,-0.23492435,-0.12758884,0.17727628,0.051726054,-0.21749333,0.16901067,0.026290782,0.094074026,-0.078926764,-0.1407861,-0.08860028
0.072650366,-0.29010242,-0.18311977,0.15897599,0.25527295,-0.19852848,0.22345266,0.22574931,0.32914057,0.096108615,-0.02077325,0.019764226
0.4660308,-0.2610173,-0.5029,-0.13176064,0.5813148,-0.3877343,0.051804468,0.29715827,0.6230055,0.4938189,0.35267672,0.3291023
0.7158958,-0.46858692,-0.7509817,-0.18597014,0.81117916,-0.72451353,-0.5693878,-0.5117345,-0.16284111,0.04135901,0.29888776,0.35224253
0.50165206,-0.5655811,-0.62285787,0.05014015,0.6137997,-0.6950607,-0.7208216,-0.8159274,-0.7457024,-0.4742016,-0.09444115,0.017388903
0.2052597,-0.4263738,-0.35836795,0.12533726,0.28735092,-0.50973487,-0.2881416,-0.38537082,-0.3277634,-0.23274839,-0.071936786,-0.059864767
0.13028373,-0.3043061,-0.23132092,0.074128665,0.15134764,-0.33558008,-0.07696821,-0.21964888,-0.16200115,-0.05419615,-0.08100476,-0.10834813
0.026071753,-0.17173168,-0.08580815,0.08711796,0.09662916,-0.15981796,0.0055643804,-0.0938437,-0.06544012,-0.021888155,-0.14461805,-0.12587014
-0.0056870636,0.060453016,0.054249056,-0.0089279665,-0.0051517375,0.0888471,-0.026731988,-0.104714066,-0.045937065,0.013869602,-0.122673206,-0.019640341
-0.10203478,0.072382465,0.114162914,0.014052104,-0.08046678,0.15039009,0.08320273,-0.088786185,-0.06334059,-0.063574985,-0.24842641,-0.0785612
-0.13139133,0.15841463,0.14518061,-0.013432432,-0.13752617,0.18045622,0.10526059,-0.025736587,-0.033323474,-0.03361217,-0.26914787,-0.048334185
-0.102803335,0.22061801,0.15923592,-0.08020096,-0.14742424,0.1903444,0.16751799,0.0017097332,-0.01896919,0.0041969996,-0.23986727,-0.033210866
-0.11134766,0.27687597,0.18528908,-0.112611465,-0.15108123,0.24679862,0.19061098,-0.0076783653,0.0037322976,0.038172442,-0.19901396,-0.030383863
-0.10372436,0.3158984,0.22034727,-0.15293722,-0.17634112,0.30987364,0.2947105,0.06073181,0.07301958,0.108215004,-0.10849962,0.015337877
-0.094571345,0.3875041,0.2667825,-0.19029568,-0.18945763,0.38973406,0.38616982,0.10087532,0.12866397,0.12371187,-0.06425272,0.022173703
-0.104456075,0.4134722,0.311196,-0.2010175,-0.24690306,0.4403924,0.39892998,0.098471686,0.10085499,0.09660368,-0.0874596,-0.022065531
-0.092913575,0.41708896,0.31694087,-0.19565587,-0.24369203,0.4373458,0.4105288,0.13371451,0.098637775,0.11117673,-0.08322055,-0.03019319
-0.08660597,0.36917052,0.29530296,-0.16252387,-0.22952625,0.38509265,0.33864015,0.13814317,0.03937271,0.06523575,-0.12550515,-0.060802713
-0.06473182,0.3145794,0.25860113,-0.14768912,-0.19185105,0.31160378,0.21240012,0.13504808,0.0074324086,0.055775624,-0.10173534,-0.041995507
-0.04164883,0.20076731,0.15733951,-0.09354063,-0.12316051,0.17507096,0.096370175,0.12737845,-0.004779298,0.041840065,-0.08786016,-0.026441794
-0.02369649,0.09876769,0.061838612,-0.037415475,-0.054074667,0.054674324,0.01604406,0.10391414,-0.008332469,0.016065639,-0.06179005,-0.019421097
-0.00047209358,0.03441476,0.023962822,-0.017991466,-0.01860025,0.0046638437,-0.01679214,0.08343913,0.017302562,0.018722318,-0.04055703,-0.0043225735
-0.013570702,0.0050182287,0.02080055,0.005748933,-0.022381535,0.0031782258,-0.016251585,0.07011378,0.005991146,0.01176133,-0.03300662,-0.0048145317
-0.005669118,-0.0062181987,0.0058861244,0.00537099,-0.011559752,-0.011875161,-0.017074816,0.07222192,0.021239981,0.011843041,-0.0340517,-0.008326554
-0.0022216449,-0.01707523,0.0031113923,0.0120735075,-0.0003479207,-0.013544616,-0.023005802,0.06745981,0.013059739,0.0015597828,-0.036296535,-0.010495039
0.016991105,-0.024606287,-0.0063531436,0.006995657,0.023738377,-0.029498994,-0.050355345,0.06803027,0.019981846,0.0031041186,-0.04066709,-0.011599112
-0.00032596523,-0.017978948,0.012185076,0.013469079,-0.007290512,-0.010201156,-0.05930485,0.05383222,0.0133781545,0.0064388365,-0.028277056,-0.0074201245
-0.0040189433,0.013948802,0.021921448,-0.007722864,-0.025683858,0.009670822,-0.061103925,0.05611353,0.022117827,0.007397853,-0.0058397846,-0.0004099384
0.018666342,0.07315241,0.039484374,-0.051180027,-0.026487388,0.058415636,-0.074055076,0.033768233,0.00928377,0.011534799,0.025205519,0.011931498
0.012025627,0.08270851,0.04085066,-0.050887965,-0.033940084,0.049636826,-0.094634145,0.003932778,-0.007229777,0.0065357275,0.021817066,0.007364465
0.0009343105,0.0883924,0.049774535,-0.04931248,-0.038347133,0.061530586,-0.10089192,-0.010999475,-0.022319969,0.009099018,0.02460004,0.0017069969
0.014124999,0.09209354,0.036886223,-0.059148274,-0.025643028,0.050935343,-0.13988304,-0.018953118,-0.026446413,0.0067911,0.023981232,0.0016656611
0.01968944,0.09309171,0.04581835,-0.058285147,-0.034525603,0.06040808,-0.19344574,-0.038216203,-0.0554656,0.018104762,0.041242335,0.011721894
0.013977244,0.043261915,0.015481483,-0.03099632,-0.0165519,0.019831682,-0.20420481,-0.020071927,-0.0619066,0.025157526,0.047664415,0.014343539
0.0042998306,0.010824517,0.0066588055,-0.009589379,-0.0018232707,0.003557587,-0.18913832,-0.00094727054,-0.07587345,0.020037666,0.06392193,0.017661363
0.016453484,-0.02866368,-0.02760347,0.0064162826,0.036765445,-0.032423653,-0.16826867,0.008466855,-0.05342155,-0.0062735714,0.052300125,0.0018907469
0.009240355,-0.025632817,-0.009023845,0.009495172,0.026222222,-0.019076359,-0.15193632,-0.004609231,-0.06316029,-0.021487463,0.058043323,0.0030174842
0.010059297,-0.05441823,-0.032650195,0.016773265,0.045257837,-0.052893877,-0.13190879,-0.0047816485,-0.041625924,-0.043576464,0.044714537,-0.0033790376
0.014539206,-0.039292768,-0.014452998,0.010435406,0.03715692,-0.02834757,-0.1241852,-0.022876004,-0.036515042,-0.033906776,0.06265393,0.012644568
0.0039609787,-0.057119243,-0.035924196,0.021723488,0.038489487,-0.05670915,-0.10418002,-0.010996774,-0.017943326,-0.041158434,0.04116396,-0.0012324136
0.013144424,-0.03286634,-0.020890307,0.011464353,0.027678479,-0.023100859,-0.10639978,-0.008148409,-0.01952523,-0.018151522,0.05088547,0.009447714
-0.018179312,-0.06466125,-0.021767568,0.048408285,0.0075962674,-0.037750598,-0.07575906,-0.0070005767,-0.038889077,-0.03563549,0.009608154,-0.042924322
-0.028015785,-0.06396873,-0.006529223,0.048997194,-0.013733637,-0.026764339,-0.046308562,-0.014074328,0.0009340197,-0.02889831,0.02214557,-0.059942372
-0.08516815,-0.14012846,-0.044227153,0.10894096,-0.017433044,-0.05499011,0.01139535,-0.00232701,0.024985313,-0.019462433,0.051428176,-0.064213835
0.061957307,-0.32428983,-0.27122623,0.1430112,0.24143796,-0.28224176,0.027841171,0.18205135,0.17545585,0.09054655,0.13107787,0.036511924
0.035909593,-0.47009107,-0.31614307,0.26012322,0.21101908,-0.35399783,-0.018517045,0.21527903,0.34082335,0.270532,0.28643906,0.18724868
0.5859501,-0.5127155,-0.7656958,-0.052960917,0.7683657,-0.6757232,-0.33227512,0.058403816,0.3596768,0.47468993,0.6062146,0.50879174
0.6368651,-0.7524503,-0.8335529,0.14381315,0.80667984,-0.868148,-0.5869347,-0.39406413,-0.33696923,-0.20679162,0.24933669,0.25294593
0.57366645,-0.725888,-0.7285493,0.14177865,0.6539533,-0.81467766,-0.4746625,-0.39312875,-0.40286648,-0.32007366,0.17244725,0.07639524
0.49735948,-0.50783306,-0.54464716,-0.0060931984,0.5334008,-0.62429446,-0.4290431,-0.5024511,-0.58722746,-0.39168623,0.19142427,0.10188612
0.23553824,-0.44117275,-0.3857783,0.091150425,0.33273256,-0.4612702,-0.21893641,-0.32983372,-0.38069814,-0.43490782,0.0072440607,-0.097882286
0.021247003,-0.08580371,-0.028776549,0.051504105,0.047304876,-0.04915824,-0.06243956,-0.15857828,-0.09961851,-0.18377751,0.02451298,-0.053177997
-0.029776108,0.16595167,0.11742449,-0.036995545,-0.06559233,0.20899981,-0.021167539,-0.16360635,-0.043776378,-0.08113009,0.054110005,-0.006208299
-0.07118003,0.18724084,0.15811245,-0.041776143,-0.11049272,0.21132359,0.052417025,-0.1023816,0.01780042,-0.058429267,-0.00010900479,-0.016851941
-0.12023672,0.20244974,0.18020988,-0.02915545,-0.1337569,0.25066894,0.123314686,-0.0721501,0.03080346,-0.031272184,-0.036880456,-0.031461544
-0.13546127,0.25429013,0.23930979,-0.061834678,-0.19705795,0.29175124,0.1931828,-0.013999635,0.06833251,0.020902049,-0.028479744,-0.013515253
-0.17181496,0.32173112,0.27263427,-0.076699466,-0.24264826,0.35537001,0.25605786,0.018181358,0.07388364,0.029206589,-0.047874086,-0.028134063
-0.16504945,0.43888772,0.3429044,-0.16149251,-0.30226,0.44455677,0.29065412,0.061230015,0.11272062,0.092287764,-0.024107654,-0.018637564
-0.17774124,0.48728296,0.3786749,-0.18737845,-0.35781434,0.48206422,0.2873458,0.057298947,0.08400272,0.09098399,-0.045570135,-0.055871665
-0.18080004,0.51160246,0.42806885,-0.20661686,-0.38577998,0.5232822,0.24822788,0.049908627,0.085011944,0.110793054,-0.029143017,-0.045140464
-0.16357918,0.50734395,0.42676145,-0.21699394,-0.37952304,0.50054955,0.15160257,0.046119694,0.079732075,0.10146919,-0.013708663,-0.043896437
-0.079138555,0.38682362,0.24712656,-0.19320591,-0.20495786,0.30760816,0.10243383,0.06834884,0.10764231,0.14317116,0.04548447,-0.0057236445
-0.06539441,0.26221934,0.16128585,-0.13406837,-0.14602621,0.19487038,0.077879205,0.07538009,0.12112391,0.14965838,0.08768001,0.016399184
-0.046611924,0.16459545,0.10829694,-0.09091452,-0.10619731,0.1186948,0.041395612,0.07590327,0.14277785,0.18477236,0.11502637,0.03196761
-0.04299453,0.06366413,0.046475694,-0.02769599,-0.062105276,0.045565736,0.013564168,0.06950086,0.123268545,0.19736727,0.11293101,0.029629722
-0.018180367,-0.0020167865,0.0076301172,-0.00023338431,-0.0021722913,0.0013893393,0.008006686,0.05227987,0.07170425,0.19080052,0.105625525,0.029427737
-0.026049308,-0.04022587,0.003139628,0.030779885,-0.00891009,-0.012187538,0.029795019,0.05186602,0.041401815,0.1564461,0.08315277,0.019385263
-0.021696784,-0.047287963,-0.004712194,0.03850715,-0.0014347257,-0.019133022,0.0368684,0.04710037,0.03449438,0.13646163,0.07247897,0.020049304
-0.021804579,-0.051644213,-0.00039756298,0.041705064,-0.00174441,-0.01647912,0.06254914,0.048745114,0.03381135,0.12050751,0.054885067,0.017062295
-0.016744781,-0.02568664,0.005732842,0.026979318,-0.0017048968,-0.009689017,0.069007896,0.043439988,0.037642073,0.12407771,0.05511587,0.031602167
-0.028954942,0.0054376964,0.021858465,0.024070013,-0.020997506,0.01575217,0.07584611,0.040841106,0.047714796,0.11899561,0.048895814,0.029984232
-0.030452136,0.037169997,0.039665163,0.006374662,-0.034103934,0.033727106,0.07116495,0.028265204,0.06681472,0.12338559,0.06799859,0.045465924
-0.016990714,0.06893417,0.04397343,-0.022734284,-0.033379257,0.0545206,0.05852095,0.0038894229,0.07984713,0.11998695,0.08583622,0.07157393
0.01643909,0.0834271,0.031513862,-0.056037515,-0.017060777,0.052122764,0.008792212,-0.029810453,0.07185933,0.117500335,0.10559008,0.10135648
0.012617199,0.075219646,0.029754918,-0.05042316,-0.012080066,0.05627144,-0.026820632,-0.07226945,0.027787734,0.08998215,0.09150624,0.09601636
0.01778312,0.05028096,0.014652738,-0.04429941,0.0056101475,0.023566397,-0.035397418,-0.07484755,0.0071841516,0.0727617,0.080647804,0.087105006
0.0061119865,0.020546664,0.015253879,-0.02048984,-0.0010610353,0.008053351,-0.023994146,-0.06934953,-0.015169006,0.040762912,0.064078905,0.06712456
0.018861696,-0.0078004375,-0.008358732,-0.008478078,0.021721859,-0.017708898,-0.0075854156,-0.059426032,-0.013076555,0.025422186,0.06400325,0.06641774
0.008407135,-0.018814754,-0.0077138543,0.0093682725,0.021110412,-0.009695764,0.0037956424,-0.057243943,-0.019210186,0.021600325,0.06555924,0.06506804
-0.00465394,-0.032631088,-0.02352244,0.023006031,0.024122257,-0.024195438,0.026681716,-0.03903221,0.006036788,0.02854126,0.057929263,0.057153244
-0.01447893,-0.051369257,-0.021582078,0.03648524,0.01749632,-0.029654805,0.038731046,-0.030033128,-0.00013869256,0.01608232,0.04029738,0.036503088
0.0004990049,-0.07047224,-0.03371974,0.04057771,0.0409639,-0.049818758,0.04411927,-0.028866928,0.016879026,0.018422287,0.02820655,0.025784153
-0.0132962195,-0.0668437,-0.022954535,0.052824624,0.021016534,-0.03589721,0.059313126,-0.0413784,0.021839749,0.013441395,0.01263813,0.012562292
-0.01134755,-0.049560405,-0.025903799,0.04816305,0.029592276,-0.031220224,0.07940119,-0.039942306,0.042788092,0.026730437,0.0063830903,0.018258931
-0.010227061,-0.012903299,0.011100311,0.025944278,-0.01267533,0.009724942,0.11197177,-0.040426202,0.03458773,0.018430728,0.0014019329,0.014185702
0.015240182,-0.003943706,-0.024296824,-0.0071235346,0.0272436,0.0010120347,0.12644355,-0.007075116,0.050539266,0.040809106,0.0031165807,0.017670546
0.0057119136,-0.001902977,0.006178623,0.0029509119,0.01586595,0.031159833,0.1620163,-0.0052100457,0.03046203,0.016660795,0.00058173016,0.011567693
0.02387682,-0.13871619,-0.14310822,0.057575554,0.15798402,-0.13422424,0.1795207,0.07976805,0.06417897,0.012635458,0.005275392,0.019683879
0.009913257,-0.30899194,-0.19028398,0.17605235,0.15110967,-0.20899232,0.2578007,0.23421112,0.20950238,0.036675636,0.0366194,0.030147042
0.4222601,-0.40964097,-0.5155492,0.004912053,0.56861264,-0.43977898,0.28845188,0.58406574,0.6282819,0.4544017,0.32163078,0.2376886
0.5981107,-0.6173303,-0.7760909,-0.032653794,0.7333652,-0.7482283,0.15369977,0.39761487,0.26333523,0.09720877,0.2091791,0.19850108
0.5397533,-0.68422407,-0.71279323,0.12923755,0.68044007,-0.7314996,-0.51331127,-0.6390585,-0.6770254,-0.737961,-0.33044457,-0.16184936
0.34087726,-0.6572628,-0.5545909,0.20890075,0.5398664,-0.68296194,-0.36599672,-0.54681873,-0.6631179,-0.6382781,-0.2577445,-0.16886352
0.29322848,-0.48703203,-0.45807645,0.0916381,0.4742321,-0.5835294,-0.20337155,-0.40288535,-0.48790485,-0.45258108,-0.18889306,-0.16075814
0.16533206,-0.22623783,-0.25166672,0.043605752,0.2708493,-0.29690725,-0.048780568,-0.20846796,-0.2017073,-0.29778934,-0.19549781,-0.2078212
-0.01905945,0.03844238,-0.023082752,0.028643511,0.032086782,0.043060537,0.019920556,-0.15811694,-0.08719283,-0.21631916,-0.19665572,-0.17380784
-0.0966668,0.148489,0.11863881,-0.013954382,-0.10006595,0.17569667,0.093397334,-0.098529115,-0.046874687,-0.1895857,-0.21743481,-0.19441026
-0.09720119,0.21797803,0.13505608,-0.06414053,-0.0977931,0.21299182,0.15990078,-0.076726496,0.008596718,-0.12761274,-0.18214342,-0.17235462
-0.1017048,0.3012941,0.17470737,-0.10761384,-0.124109045,0.25181425,0.20563924,-0.050925106,0.04306676,-0.07976222,-0.18232672,-0.15914235
-0.11193051,0.36816967,0.19553354,-0.14870672,-0.17060952,0.29822138,0.2098593,-0.063711025,0.007682599,-0.09915547,-0.21718717,-0.20082502
-0.1685251,0.44995978,0.2687235,-0.16077471,-0.25136545,0.382321,0.23546176,-0.05998642,0.026327953,-0.068147376,-0.23758495,-0.22997946
-0.3378312,0.43830696,0.3798974,-0.045221515,-0.39789864,0.43534386,0.36034408,-0.041818544,0.039688308,-0.049970813,-0.32123247,-0.3086393
-0.43468615,0.5089197,0.5105344,-0.023738941,-0.52715206,0.54740775,0.37467876,-0.05378758,-0.011182943,-0.024024466,-0.33829743,-0.34502563
-0.41935927,0.52611417,0.5389043,-0.06330872,-0.57462734,0.56473696,0.32062274,-0.066536486,-0.047385596,0.018724304,-0.30932444,-0.3337056
-0.326173,0.5056742,0.51568055,-0.1086247,-0.5053259,0.5284693,0.2798243,-0.025757475,-0.022821,0.0935729,-0.20497194,-0.2502294
-0.17574325,0.47033116,0.3985752,-0.16369185,-0.3343036,0.4447431,0.21285264,-0.015398887,-0.008474387,0.13936797,-0.0882846,-0.12992997
-0.088632666,0.34248608,0.23515137,-0.138797,-0.1945696,0.2772107,0.1354582,-0.013513612,0.008683857,0.15213874,-0.021783907,-0.04084419
-0.056507275,0.21745715,0.1468198,-0.09828898,-0.12939674,0.15399203,0.07014842,-0.018031843,0.014896445,0.13025874,0.0020540608,0.002434181
-0.03611263,0.116925776,0.059645645,-0.053362258,-0.07188025,0.0801453,0.038900547,-0.007962041,0.03506126,0.09828116,-0.009876107,-0.0019158148
-0.02829602,0.07698083,0.045358516,-0.025723433,-0.04062912,0.05946259,0.019256612,0.021585826,0.047532674,0.077451795,-0.024107467,-0.005713824
-0.0433701,0.07413073,0.06539496,-0.017533623,-0.06462519,0.07387385,0.009178968,0.058558483,0.07144272,0.09475069,-0.016931802,-0.0037961912
-0.075893566,0.080142915,0.10553802,-0.0076734917,-0.11216454,0.10110612,-0.026572365,0.07723042,0.1022284,0.068740666,-0.0074186525,0.0100670345
-0.03052206,0.120541364,0.13898793,-0.046442665,-0.13446441,0.15535785,0.020020386,0.078481436,0.10025787,0.02510611,-0.057888065,0.006227319
