0,1,2,3,4,5,6,7,8,9,10,11
-0.021794533,0.07984595,-0.057534683,-0.054553505,-0.015913783,0.020206114,-0.037016608,0.01986856,0.035868272,-0.048193198,-0.0071429885,0.02449529
-0.0943515,0.071289875,-0.07308613,-0.06777111,-0.06738535,0.05648079,-0.07537099,-0.041429635,-0.0035143648,-0.109817594,-0.022947723,0.036931995
-0.0645688,0.08106246,0.0177052,-0.03784633,-0.056430914,0.08670203,-0.053151213,-0.077474356,-0.03398635,-0.044804893,0.021921847,0.021853037
-0.062306654,0.07101492,0.013055209,-0.1300551,-0.04296654,0.06701371,-0.059047595,-0.12343645,-0.034495253,-0.11820257,-0.017155096,0.0052286806
-0.06336274,0.05593862,0.039429627,-0.14570005,-0.058451913,0.070604995,-0.037884634,-0.11878572,-0.05694136,-0.08938769,-0.048176546,-0.03682542
-0.07065268,0.10804749,0.017581707,-0.1720969,-0.042528085,0.046861485,-0.006613903,-0.1388024,-0.07397649,-0.0982099,-0.06905693,-0.04785593
0.002866588,0.114554696,-0.011703761,-0.11057751,-0.01988858,0.1196006,-0.047839873,-0.09655857,-0.043976415,-0.07275684,-0.0669549,-0.025686573
0.0765317,-0.01265196,-0.09843197,-0.15177034,0.049878716,0.011071766,0.03400528,-0.09868814,0.0085380385,-0.026436754,-0.047836572,-0.029851386
-0.040751792,-0.26241738,-0.24580097,0.420202,0.027815437,-0.24169254,0.012916652,0.058157843,0.1561074,-0.008677503,-0.023427788,0.018479448
0.36146766,-0.378113,-0.3512866,0.41231897,0.29826257,-0.366785,0.2633002,0.39353338,0.400213,0.39156505,0.07636457,0.21705619
0.45268482,-0.5670625,-0.6605259,0.4258205,0.45364234,-0.7320057,-0.10830822,0.47250918,0.45940548,0.4434117,0.4418434,0.46272194
0.56044316,-0.844778,-0.88584644,0.5156676,0.57216763,-0.91716266,-0.82436126,-0.45049283,-0.539243,-0.7128459,0.3931127,0.39197406
0.56214243,-0.7222173,-0.7798113,0.4672037,0.52528214,-0.5916818,-0.8750678,-0.5766458,-0.7630867,-0.81184596,0.19441299,-0.026480354
0.54630786,-0.62035996,-0.7412978,0.40384874,0.49589637,-0.42868215,-0.5770081,-0.11826427,-0.07559232,-0.59001064,0.39148602,-0.08856208
0.47358692,-0.56654245,-0.6202867,0.2776961,0.43715903,-0.11253258,-0.31815493,-0.120278455,-0.08474243,-0.5283977,-0.34032845,-0.2450083
0.24638289,-0.120144226,-0.1287388,-0.024370404,0.19439612,0.06931571,-0.13238524,-0.11891582,-0.032123476,-0.40123287,-0.42651922,-0.2732499
-0.32851702,0.18193637,0.0927864,-0.1691154,-0.3132234,0.22311914,0.013386969,-0.18068635,-0.0903443,-0.2832436,-0.37953314,-0.32861072
-0.42086375,0.33636302,0.3247282,-0.1816046,-0.36955982,0.31339592,0.09917775,-0.12559853,-0.05141376,-0.251906,-0.3023091,-0.27669165
-0.49190333,0.39236987,0.38296565,-0.3006848,-0.43456632,0.39044824,0.19325367,-0.16638441,-0.054647665,-0.17292966,-0.33937606,-0.29761928
-0.5497792,0.39473176,0.39101174,-0.32751513,-0.48062173,0.39178765,0.22670035,-0.12286524,-0.046176087,-0.15788826,-0.2851769,-0.30722493
-0.5876635,0.4150147,0.4106842,-0.36592087,-0.51126283,0.39749286,0.23829065,-0.17038375,-0.0748192,-0.14037463,-0.32196763,-0.31853974
-0.6207241,0.42470297,0.43058306,-0.35101786,-0.53127354,0.40222058,0.16467145,-0.12516217,-0.04365633,-0.13927878,-0.32210547,-0.3167179
-0.6376407,0.44111082,0.44685346,-0.37174278,-0.592507,0.4236387,0.25013873,-0.10941692,0.0045229485,-0.11724988,-0.35797584,-0.3238293
-0.66881406,0.44969845,0.46110833,-0.36744532,-0.5788048,0.43610996,0.40161356,-0.018981978,0.12833312,-0.071460485,-0.36475927,-0.30423072
-0.4649753,0.44299406,0.46653545,-0.38389388,-0.57671666,0.44344723,0.4006259,0.022622867,0.17370607,-0.048242852,-0.36705145,-0.30381915
-0.3471695,0.42656976,0.4274861,-0.29983672,-0.48914146,0.40752003,0.39388043,0.09268828,0.15196882,-0.02379329,-0.30809107,-0.27802905
-0.27374852,0.40011004,0.39781505,-0.1921035,-0.36252567,0.40237844,0.39033416,0.106808536,0.09339353,-0.028618982,-0.22789083,-0.23948573
-0.19980414,0.19125545,0.23382095,-0.118660495,-0.19939043,0.25527996,0.23537953,0.098761156,0.07131561,-0.06448843,-0.16827613,-0.19014104
-0.14011566,0.15334582,0.08244036,-0.09217388,-0.11075001,0.15278324,0.122561365,0.055697735,0.03079409,-0.07316981,-0.14800541,-0.1536856
-0.11226463,0.07953309,0.047473393,-0.048391722,-0.019355413,0.059851583,0.037690658,0.03837369,-0.0017892104,-0.09154646,-0.08749733,-0.09687666
-0.061690483,0.06505759,0.03299308,-0.07208841,-0.04149068,0.05215147,-0.019513395,0.00249734,-0.008460528,-0.09202785,-0.093764864,-0.048158646
-0.036544435,0.044183258,0.020436123,-0.044431858,-0.04504572,0.04538022,-0.0064927023,0.007226222,0.0023468093,-0.08741112,-0.09079287,-0.014778522
-0.034848876,0.041722916,0.06563035,-0.06431921,-0.044831783,0.084655344,-0.02272608,-0.022946412,-0.017358765,-0.09118649,-0.11644163,-0.03522571
-0.031638876,0.064518176,0.06783818,-0.061695144,-0.07783256,0.08083632,-0.011030644,0.0029036023,-0.006649575,-0.08090823,-0.079827264,-0.010394467
-0.012594481,0.10947834,0.10349016,-0.10434701,-0.0899265,0.10232234,-0.091918334,-0.022599038,-0.023703218,-0.09314797,-0.097197145,-0.024599923
-0.023781762,0.09437049,0.054912616,-0.12031294,-0.072762415,0.09462019,-0.16380377,-0.018577494,-0.011787435,-0.08894397,-0.07091372,-0.026705232
0.02212375,0.12582816,0.09293386,-0.122130886,-0.07358827,0.11965694,-0.1676077,-0.04060175,-0.022285795,-0.09745751,-0.07364612,-0.025202837
0.02710882,0.102252506,0.0702457,-0.10380777,-0.034055796,0.0970592,-0.16185515,-0.0147959525,-0.013060929,-0.09289442,-0.049968794,-0.015404793
0.008901779,0.09818733,0.07244231,-0.0923179,-0.022704335,0.06692396,-0.13157338,-0.005074189,-0.0027611484,-0.09712588,-0.050538927,-0.017108351
-0.022433689,0.030838395,0.02036859,-0.041531947,-0.03651446,0.0151916975,-0.09732922,0.01484157,-0.010423283,-0.071826,-0.06182518,-0.018147234
-0.028115848,0.033068813,0.025317086,-0.05593128,-0.049899496,0.020742718,-0.06943663,-0.005901417,-0.002432699,-0.062468916,-0.06961289,-0.033418365
0.0064183488,0.004067935,-0.0036060654,-0.01730174,0.0017388446,-0.026532322,-0.04752784,0.026454207,0.020733396,-0.04708903,-0.074338675,-0.029068682
0.043348607,-0.0046264795,-0.0073135383,-0.016364664,0.015598373,-0.01684989,-0.05236793,-0.017349051,0.015234632,-0.04634063,-0.05644235,-0.02214463
0.0099678915,-0.0038274042,0.004425586,-0.018173095,0.0024114205,-0.04209375,-0.06403711,0.017279217,0.0019303834,-0.065149374,-0.019703938,-0.012886854
-0.066568725,-0.008571475,0.011338105,-0.034539424,-0.014381728,-0.05166816,-0.08164695,0.023353174,0.013812886,-0.07720736,-0.0035657135,-0.005011189
-0.022426868,-0.019832514,0.0022214614,-0.07922338,0.00081002695,-0.028995102,-0.07260811,0.04789919,-0.020863455,-0.0671592,-0.0562939,0.005289386
-0.016621817,-0.021762153,0.017114697,-0.1067169,-0.033285327,-0.04372662,-0.06604393,-0.001287698,-0.017038038,-0.058342673,-0.081124984,0.0027381412
-0.010864009,0.030431736,0.052494746,-0.12633288,-0.074603595,-0.0014317324,-0.04727904,0.022782257,-0.03158719,-0.042075336,-0.051179297,0.022749789
-0.011458819,0.11903649,0.07814686,-0.12845467,-0.09949311,0.19359347,0.00033587217,0.0019693945,-0.008878713,-0.013134529,0.013900339,0.037811663
0.03157466,0.030157449,-0.0029871971,-0.06812741,-0.09212743,0.020148352,-0.018007299,0.011867294,0.01744463,0.018229432,0.050273973,0.087771684
0.03076497,0.055027366,-0.00483527,-0.07319708,-0.093480855,0.023005093,0.02776246,0.060149632,0.03054616,0.07601403,0.053424228,0.06705061
-0.054951895,-0.13239875,-0.1559755,0.063195124,0.0007952152,-0.1419339,0.06433043,0.2035213,0.07215002,0.030764673,0.041545425,0.043464705
0.030419469,-0.32541817,-0.23359539,0.15656215,0.16959545,-0.22974057,0.1177177,0.3946482,-0.0025826336,0.06309767,0.22702457,0.16137037
0.40111104,-0.5818834,-0.5220433,0.39847204,0.41119057,-0.49337205,0.17964278,0.472938,0.025354821,0.26691324,0.40272713,0.40228152
0.48938435,-0.8124944,-0.8003659,0.39893773,0.50068694,-0.749014,-0.3058817,0.46567762,0.39714256,0.4161554,0.46421617,0.4689432
0.57081175,-0.92035913,-0.92581165,0.41290313,0.5991844,-0.9019098,-0.89713657,-0.34963793,-0.16274273,0.39285275,0.4626611,0.46562266
0.5550662,-0.8825916,-0.8772056,0.48042938,0.54928946,-0.9224674,-0.8172486,-0.5242949,-0.20158781,0.40520987,0.5436919,0.55048025
0.51357186,-0.62599474,-0.6230116,0.40664807,0.48598546,-0.65376025,-0.49994388,-0.40254417,-0.35440254,0.010042151,0.44038522,0.45904115
0.41625318,-0.34125456,-0.4041974,0.15089674,0.41441852,-0.37262428,-0.3342394,-0.27210197,-0.21827799,-0.24269481,-0.0712011,-0.14272308
-0.18878487,0.07112383,-0.004653152,-0.099796966,-0.1440665,0.0018519142,-0.02855907,-0.03941603,-0.098581426,-0.13737729,-0.20154063,-0.20141889
-0.26021948,0.20824,0.13731937,-0.2074905,-0.33865985,0.23647517,0.08572846,0.004767739,-0.044175435,-0.14579824,-0.13597508,-0.22548884
-0.36366865,0.24705017,0.22110616,-0.18161975,-0.33298334,0.39087602,0.092737116,0.019287221,-0.014752272,-0.084113464,-0.14260618,-0.24821134
-0.42132613,0.34011838,0.21784547,-0.25556374,-0.38485372,0.39172518,0.08807113,-0.014204411,0.0065527516,-0.104558244,-0.13417937,-0.25477558
-0.4770245,0.39192382,0.38274616,-0.28693447,-0.4398781,0.40355107,0.030853251,0.016590236,0.027292237,-0.097465545,-0.16584207,-0.28836265
-0.3080057,0.39354703,0.39381894,-0.3371476,-0.43123618,0.4074727,0.06355431,0.0043326644,0.027181901,-0.10554625,-0.14552999,-0.31416756
-0.3347153,0.3943881,0.41346583,-0.34502563,-0.47903335,0.41547692,0.077499956,0.028763076,0.012035474,-0.061081182,-0.15361087,-0.34822592
-0.27779385,0.40448952,0.42545825,-0.335524,-0.50973034,0.43529195,0.18062389,0.087054975,0.024989437,-0.04298638,-0.17915623,-0.4011325
-0.2677884,0.40419024,0.4071761,-0.31006825,-0.5325111,0.41971332,0.21347658,0.14508875,0.09699413,0.045312617,-0.13999867,-0.4291546
-0.12073133,0.41180095,0.32045415,-0.27054116,-0.44169003,0.39584193,0.25788152,0.18214582,0.15179372,0.088064745,-0.06666082,-0.38159415
-0.08406967,0.39028743,0.25086698,-0.23627073,-0.35033038,0.36689597,0.20407379,0.21930479,0.18826327,0.1527236,0.024661189,-0.30985624
-0.09171071,0.23250276,0.20143671,-0.16595963,-0.23263024,0.22293429,0.17005228,0.21276532,0.21799389,0.18219474,0.095613144,-0.21993144
-0.049097907,0.16618699,0.16284876,-0.10477124,-0.18110931,0.15926555,0.07982084,0.20173986,0.227829,0.22421591,0.17964652,-0.11339459
-0.04849079,0.11315167,0.114230834,-0.09382052,-0.08778801,0.119283624,0.03053175,0.15846077,0.22703761,0.22019616,0.3187037,-0.043114413
-0.0041487277,0.0700288,0.037932634,-0.06487712,-0.045433633,0.046622396,-0.0043701846,0.12004694,0.1541017,0.21157615,0.39183372,-0.0063649747
-0.026513947,0.03289487,0.024997868,-0.058599968,-0.02956777,0.027197924,0.0062818,0.089077525,0.12056951,0.19151475,0.39738837,0.0051349844
-0.009218372,0.028649446,0.026149957,-0.064554945,-0.029121954,0.033287916,-0.012620434,0.07245781,0.0673831,0.18843658,0.392545,0.018339843
-0.018156769,0.019675309,0.039064456,-0.08409071,-0.03901723,0.02450914,0.015311475,0.055677738,0.06442774,0.204308,0.40461463,0.01133599
0.026640428,0.051843584,0.047833063,-0.09375541,-0.05063607,0.03214664,-0.0023320573,0.05384014,0.053760204,0.21456674,0.40070736,0.020496627
0.010843001,0.053458553,0.04589886,-0.1085152,-0.046989948,0.039899405,0.008011587,0.023847945,0.07006433,0.2143209,0.40613726,-0.031810723
0.04412535,0.053193975,0.032671236,-0.106359325,-0.009181122,0.0491458,0.0067020846,0.014746401,0.03290079,0.22200583,0.40484816,-0.03338717
0.020376902,0.034982737,0.021057146,-0.10623516,-0.009106832,0.056131072,0.0067173424,0.0058318907,0.042667247,0.19780959,0.40017763,-0.042811554
0.043031387,0.023566442,-0.0013334445,-0.071588986,0.018726664,0.014851193,5.9604645e-06,0.022491118,0.018309215,0.20910911,0.39486584,-0.01756121
0.0242507,-0.0010259446,-0.028856728,-0.052501224,-0.004396857,0.003495381,-0.00523625,0.027848938,0.032262687,0.1913574,0.3926361,-0.05035483
0.04735258,-0.04638384,-0.038137347,-0.02077245,0.02626551,-0.04920229,-0.029030478,0.046845604,0.033361476,0.19784766,0.29838848,-0.054520342
0.044018652,-0.02797419,-0.046584867,0.0057837022,0.028828498,-0.031938564,-0.040398594,0.016319048,0.050957642,0.1781302,0.23536466,-0.051648308
0.033369843,-0.05815223,-0.053443722,0.055194642,0.044811618,-0.061350506,-0.030660762,0.017566394,0.036368355,0.18190768,0.2847379,-0.06725396
-0.0019869779,-0.038008966,-0.025642911,0.002627635,0.01693078,-0.054166567,-0.018478079,-0.0055678505,0.037786514,0.15236047,0.222502,-0.082423076
0.002619767,-0.059938055,0.00673412,-0.009200134,0.028009567,-0.043806512,-0.012199929,0.018131355,0.026933175,0.16801833,0.26802227,-0.06219672
-0.008111597,-0.014621557,0.0010378655,-0.06821761,-0.006091877,-0.005859755,-0.017737554,-0.020905904,0.0130838435,0.16175105,0.27305853,-0.0507133
-0.0045779026,0.014560177,0.0041136807,-0.039751075,0.015947152,-0.015677776,-0.0029043772,0.06797069,0.02734346,0.20214753,0.32041657,-0.03531111
0.01223968,0.06724862,0.012091882,-0.09638373,-0.017533025,0.007681517,-0.000639528,-0.016096782,0.006378445,0.17655466,0.27751547,-0.02616032
0.052023046,0.031182876,-0.0029981046,-0.082992375,-0.021893488,-0.0010671314,0.031422935,-0.019802038,0.015752561,0.18819201,0.26237568,-0.008834639
0.04156839,0.06088807,-0.0051707164,-0.08231415,-0.061635796,0.025319677,0.03451338,-0.06709028,0.02414806,0.13073345,0.24974042,-0.044614926
0.030360484,-0.0721009,-0.07769709,-0.025138356,0.0074691875,-0.045399968,0.031040916,-0.029918293,0.059835218,0.08765114,0.25220075,-0.02654635
0.0007632075,-0.04939901,-0.12089996,0.028653108,0.047874097,-0.013412207,0.019368341,-0.05032487,0.072044,0.10255283,0.20821282,0.037498556
0.005403198,-0.2700481,-0.15029639,0.3940338,0.026926653,-0.25147992,-0.018917538,0.059820667,0.10315033,0.3900773,0.31246042,0.06983069
-0.06550153,-0.16571681,-0.3439324,0.42721868,0.27325436,-0.3653285,-0.068451926,0.3912718,0.11496975,0.40393466,0.40529162,0.32191002
0.39769536,-0.49583146,-0.54716104,0.4517452,0.39913324,-0.6586689,0.39542344,0.49227464,0.3927537,0.53921264,0.5110857,0.49203557
0.39598656,-0.62455904,-0.8671427,0.52823836,0.4000987,-0.7595879,0.044326864,0.3938223,-0.07013888,0.39863116,0.5196822,0.49710345
0.08887845,-0.56545746,-0.89077616,0.504163,0.42051083,-0.6557218,-0.569527,-0.7611876,-0.59013987,-0.44611052,0.44029254,0.43872777
0.21724778,-0.8098271,-0.6405546,0.4340041,0.52320254,-0.35572284,-0.1529563,-0.43331298,-0.20052387,-0.069240704,0.3935637,0.43685117
-0.0034757713,-0.51011115,-0.2994842,0.22772318,0.46792752,-0.122935265,-0.05763348,-0.39294216,-0.021718781,-0.13041833,-0.031142026,0.09660398
0.07519686,-0.20420401,0.042683728,0.10395382,0.39345655,-0.028831089,-0.048952047,-0.2567347,0.067716725,-0.050140083,-0.059249926,-0.17291173
-0.12420307,0.12424729,0.102816544,0.009558267,-0.1225855,0.18957129,-0.037945252,-0.17808388,0.06337322,-0.056003887,-0.14356561,-0.23517364
-0.37987217,0.117818594,0.29967454,-0.062188737,-0.3035937,0.20516045,0.013695516,-0.10745095,0.07088477,0.024395453,-0.19531554,-0.18839799
-0.32569212,0.242109,0.30345064,-0.08607514,-0.19869967,0.30009112,0.0067416006,-0.116643526,0.098316774,-0.044958632,-0.17515954,-0.18834475
-0.34087583,0.20393835,0.34359223,-0.14358936,-0.19134977,0.29341567,-0.010938,-0.089286104,0.12673649,0.008748218,-0.2481559,-0.22320704
-0.31181842,0.38099447,0.39226907,-0.16850431,-0.16731559,0.3495506,-0.046896454,-0.1022111,0.1508392,-0.038841277,-0.27882048,-0.24363253
-0.27258283,0.39104953,0.4040122,-0.2242135,-0.14753297,0.39123648,-0.054228965,-0.09340635,0.1577106,0.019612778,-0.29948682,-0.2660526
-0.18694167,0.3957072,0.41112864,-0.23693745,-0.2118971,0.40883246,-0.055248033,-0.059680384,0.17412698,0.024536185,-0.29724288,-0.22085875
-0.12822664,0.39733097,0.42113551,-0.29660186,-0.11200655,0.41451865,-0.008919688,-0.020102236,0.15653981,0.10831205,-0.28764862,-0.18248723
-0.073538855,0.3927371,0.4212136,-0.32927108,-0.13155481,0.42708814,0.017681276,-0.0054256385,0.10719942,0.10898281,-0.2705659,-0.109710954
-0.084451474,0.39143485,0.40108237,-0.22721171,-0.10939725,0.4059376,0.05224625,-0.028003223,0.036639195,0.16297995,-0.23324777,-0.075980805
-0.047418114,0.268167,0.39012614,-0.18655135,-0.103684425,0.39230597,0.043484934,-0.059924245,0.015266245,0.17245404,-0.14903083,0.009051583
-0.08741204,0.14626426,0.25513324,-0.06829139,-0.101012796,0.29791874,0.043443795,-0.059119288,0.0020029815,0.21333656,-0.08647166,0.0123004075
-0.054103423,0.098191574,0.14112021,-0.07933604,-0.0878596,0.14385751,0.029365588,-0.07579754,0.00651857,0.18985365,-0.041344903,0.04368908
-0.05416006,0.05903747,0.079031594,-0.07365054,-0.07566814,0.12572336,0.021393253,-0.06663192,0.009512048,0.17947596,0.0044829845,0.04570219
-0.0054940325,0.06820373,0.045755275,-0.09357196,-0.020017482,0.110866785,0.0001052618,-0.059491187,0.024291206,0.1192048,-0.0024859258,0.06507361
0.0041583837,0.07251221,0.044680838,-0.07136635,-0.0019003726,0.114440344,-0.0033580237,-0.04088583,0.034304146,0.10664938,0.0012069935,0.051343523
0.033556554,0.078036495,0.040046424,-0.08264584,0.0021961296,0.0699659,-0.006872099,-0.040104624,0.02824333,0.0794019,-0.03472535,0.053602293
0.0014750649,0.049508743,0.02367364,-0.063788734,-0.004490673,0.05922641,-0.005338767,-0.056206085,0.034506265,0.07856592,-0.031197375,0.039643988
0.010671568,0.036544226,0.02827418,-0.069284715,-0.0028220043,0.05048581,0.01033013,-0.026948541,0.03851781,0.06342252,-0.036085904,0.074120894
0.0032755616,0.02855374,0.012857056,-0.050887074,-0.009236222,0.04195616,-0.00465798,-0.0052792835,0.04054757,0.08121007,-0.0076249256,0.076271355
0.016262319,0.028161053,-0.0029060163,-0.053884834,-0.008264234,0.04044394,-0.005860977,-0.0031456247,0.04139661,0.05453636,-0.032078076,0.098191395
0.01882596,0.02009753,-0.012392811,-0.025235271,0.009786264,0.032338604,-0.004481733,-0.005898109,0.024227794,0.04465056,-0.025791498,0.07981684
0.03214929,0.014008202,-0.003415482,-0.01796267,0.0029300665,0.02256073,-0.015793053,-0.03397313,0.011447764,0.014890941,-0.0723368,0.08358745
0.008731561,-0.016453302,-0.03539115,0.013542957,0.016354235,-0.00401605,-0.01558571,-0.03682539,-0.0024175001,0.025655957,-0.080084324,0.052199084
0.011842085,-0.02007751,-0.04722742,0.023504071,0.019371143,-0.024964212,-0.021449286,-0.053568803,-0.0047145435,-0.009325353,-0.12212137,0.04138843
0.0053059557,-0.03383736,-0.06801709,0.031862825,0.028674668,-0.027658261,-0.019487089,-0.04425158,-0.0068124374,0.011581052,-0.1150371,0.00944926
0.022297382,0.019362355,-0.014988284,0.013692626,-0.0097466605,-0.02506911,-0.021174455,-0.03234301,-0.009340968,-0.020504491,-0.11100116,0.04076935
0.002525354,0.0109512005,-0.010066438,0.00094142527,-0.018033635,-0.015151146,-0.011132257,0.0076720403,-0.007340836,-0.016891541,-0.09718008,0.013594774
0.013982071,0.025843497,0.018975781,-0.041868784,-0.046008926,0.018073348,-0.021611901,0.013293377,-0.005800301,-0.016392969,-0.08004151,0.16034429
-0.0068556485,0.03865339,0.030069701,-0.036299307,-0.032217376,0.041999385,-0.017683957,0.015577964,-0.019484825,0.004265014,-0.09593876,0.016564256
-0.006779984,0.07470027,0.015644824,-0.055313785,-0.043943044,0.02360558,-0.027694741,-0.032160364,-0.029124664,-0.007989117,-0.095053375,0.033200335
-0.008466071,0.07667622,-0.01034944,-0.068719596,-0.03830992,0.007359253,-0.03509775,-0.080735944,-0.03574118,-0.0191531,-0.12025707,-0.004706914
0.036043223,0.059277397,-0.036934614,-0.05199695,-0.017032944,0.0056902748,-0.04852727,-0.04793749,-0.014097621,-0.029984841,-0.114247486,0.01968514
0.026949108,0.060530066,-0.053264435,-0.008542837,0.006515649,0.02266448,-0.042878427,-0.027568804,-0.0021572676,-0.042316515,-0.15937947,-0.025831554
0.049920723,0.057753447,-0.11237668,0.0031591847,-0.008182701,0.023583151,-0.08639441,-0.014748964,-0.018503252,-0.05211854,-0.17147616,0.011572291
-0.027540363,0.111049555,-0.10261092,0.13407342,-0.09523482,0.02986824,-0.091377236,0.04792036,-0.014918978,-0.0016679451,-0.10100371,0.014288913
-0.07950049,-0.035348494,-0.21708442,0.46462196,0.017942619,-0.010743473,-0.22003926,0.2422095,-0.010848901,0.12935138,-0.02050884,0.079506464
0.081079654,-0.4762985,-0.15709025,0.39983845,-0.04455107,-0.24869163,-0.10775059,0.4164098,0.13178779,0.4056097,0.10638329,0.39354393
0.4611583,-0.8032003,-0.43910274,0.40969044,0.39699706,-0.45278746,0.16145472,0.46904543,0.4056373,0.46088558,0.41851538,0.41850752
0.5283048,-0.90137726,-0.6574894,0.40651605,0.39901572,-0.44674253,-0.16150548,-0.2667459,-0.20083793,-0.4375123,0.21588047,0.40830564
0.5072306,-0.8127689,-0.5887114,0.39946845,0.40439436,-0.6959709,-0.47738323,-0.7576001,-0.5906444,-0.61563444,0.22954153,0.4003007
0.4250189,-0.6162563,-0.73981696,0.40747744,0.5025946,-0.6594322,-0.48481402,-0.20885469,-0.4343711,-0.25596496,-0.27413744,0.39401624
0.37330037,-0.34293652,-0.49824008,0.39015433,0.43776247,-0.25926623,-0.14103688,-0.1880225,-0.26522627,-0.4663768,-0.17228036,0.17167969
-0.1852402,-0.0140003655,-0.10097645,0.09206774,-0.030050019,-0.094649106,0.03224039,0.020741528,-0.23779711,-0.19524169,-0.30531615,0.10083359
-0.20132321,0.21419516,0.25214025,-0.04090267,-0.21346083,0.040915463,0.06871224,-0.08909405,-0.22886273,-0.17272219,-0.2884743,-0.0847611
-0.3248324,0.24923828,0.30250448,-0.13053358,-0.3655814,0.09080186,0.092799634,-0.061481114,-0.19725713,-0.074563496,-0.3761358,-0.20942318
-0.3500235,0.25117117,0.3348678,-0.18681316,-0.35692415,0.13164267,0.118547305,-0.10698542,-0.2055522,-0.10785804,-0.3893425,-0.24441618
-0.5417759,0.28512326,0.38239053,-0.21664262,-0.4437222,0.17813152,0.20378803,-0.053776074,-0.2102977,-0.03706119,-0.39284337,-0.26135167
-0.4566196,0.31208783,0.39599922,-0.21243523,-0.43183205,0.22572854,0.23031564,-0.073738776,-0.22745273,-0.10426595,-0.39157668,-0.2423617
-0.6355587,0.31828192,0.3967239,-0.24561664,-0.4701118,0.27332172,0.2438614,-0.04077878,-0.22222744,-0.1557156,-0.42287976,-0.26798585
-0.61199427,0.39116448,0.40461498,-0.2502926,-0.492768,0.31402436,0.27556217,-0.0784606,-0.2157176,-0.1552318,-0.46602547,-0.27297872
-0.68289554,0.39353764,0.41367722,-0.25408548,-0.52224416,0.34540927,0.36218703,-0.096713044,-0.2074995,-0.089507006,-0.49264535,-0.29745793
-0.638332,0.4001232,0.42332575,-0.22202826,-0.51334935,0.28862134,0.31927863,-0.1013467,-0.13207181,-0.015137529,-0.48453814,-0.26054308
-0.561422,0.39285687,0.4115796,-0.21778607,-0.46138734,0.19120295,0.33709392,-0.028176805,-0.10338022,0.07877203,-0.41683525,-0.21252647
-0.45798567,0.39020357,0.39357144,-0.19870041,-0.35330632,0.14972162,0.2598968,-0.026110673,-0.084897146,0.1106776,-0.32249504,-0.14600065
-0.2720369,0.1810438,0.271952,-0.1712051,-0.222626,0.09340558,0.29734752,-0.039430905,-0.05911017,0.14237316,-0.21000646,-0.031196274
-0.10001689,0.1345498,0.15717277,-0.14285691,-0.15061791,0.06735361,0.17529479,-0.05160203,-0.05144839,0.0905928,-0.11022083,0.04769212
-0.045167897,0.07630709,0.12064669,-0.14237039,-0.07691679,0.036551487,0.1085163,-0.024108477,-0.053172193,0.071969055,-0.09775211,0.078186825
-0.008914949,0.045649666,0.0763403,-0.10816089,-0.06471123,0.03796022,0.051829465,-0.014753522,-0.051597003,0.03611659,-0.07630691,0.10318766
-0.006589347,0.022248946,0.040867444,-0.075780384,-0.07023761,0.021320956,0.021924201,-0.014357534,-0.05386543,0.021825364,-0.08742097,0.09771964
0.0011326964,-0.0002747476,0.021765519,-0.051894885,-0.06995931,0.019351272,0.0011734659,-0.022658344,-0.047444757,0.0015532064,-0.103873104,0.11180982
0.0120867565,0.006238141,0.016529784,-0.049710363,-0.053107437,0.022234738,-0.006646267,-0.025119117,-0.038432315,0.023911983,-0.08676533,0.11471469
-0.020832416,0.034758627,0.018784937,-0.061155263,-0.05633249,0.018567573,-0.0037051567,-0.044594523,-0.046385594,0.009006138,-0.09131251,0.09902828
-0.009362662,0.047965437,0.018861888,-0.060562346,-0.0682471,0.006216118,-0.0037248856,-0.029569289,-0.033957325,0.039341874,-0.07368978,0.09266136
0.0114304805,0.056389205,0.036156263,-0.052111197,-0.07580285,0.02205089,-0.0034992255,-0.03165171,-0.025193335,0.03014426,-0.029422045,0.12618126
-0.0040967534,0.004981626,0.00911303,-0.027645128,-0.08361533,0.0008392034,-0.002159622,-0.010440805,-0.0335069,0.0076530273,0.042237233,0.14110607
-0.00718018,-0.012007017,0.0029198145,0.023103982,-0.0718206,0.00038558242,0.0043140086,0.018298639,-0.016938675,0.00057768816,-0.025901603,0.12382471
-0.028105663,-0.067284755,-0.038162556,0.06094104,-0.058754764,-0.020280292,-0.0064963084,0.03506584,-0.023576181,0.0075201467,-0.02335514,0.11249992
-0.01351748,-0.03685497,-0.036747232,0.068122305,-0.054841008,0.0025992335,0.0035053645,0.041787863,-0.02564312,-0.011675661,-0.012758308,0.1025914
0.0045546573,-0.0441053,-0.065982185,0.021951457,-0.036911905,0.0005668997,0.012684499,0.015923554,-0.02616705,0.0017680209,0.03046833,0.08690919
-0.0018979586,-0.008773966,-0.058661092,-0.010073768,-0.04677239,0.03502173,0.016805466,0.0024932572,-0.037048303,-0.013598438,-0.016463222,0.019372066
0.010860344,-0.0043785293,-0.0650759,-0.072830155,-0.030115109,0.025724249,0.020676289,-0.021686014,-0.038577534,-0.021176122,0.054598875,0.038342595
0.02080492,0.016434383,-0.098486744,-0.06549272,-0.055189237,0.014780756,0.0057290164,-0.042309284,-0.05765308,-0.0654861,0.021084253,0.058774337
0.04862521,-0.015859585,-0.14409575,-0.05264043,-0.035364628,-0.014846575,0.0041722115,-0.046103287,-0.046095584,-0.06563521,0.044782914,0.08314639
0.08516227,0.055998273,-0.16617595,0.046226047,0.007748866,-0.046984714,-0.04169409,-0.021418484,-0.06226346,-0.08360983,-0.009234076,0.11003279
0.053572487,0.013941428,-0.15853605,0.00095385284,0.04742525,-0.046464134,-0.048353367,-0.0021581617,-0.057155598,-0.098013215,0.05598514,0.13173981
0.040137295,0.07514643,-0.16176541,-0.058574427,0.05344928,-0.09640085,-0.13038616,-0.012519302,-0.028911786,-0.074188024,0.09122202,0.08873576
0.05461323,-0.023815092,-0.088415064,-0.060847837,0.04096875,-0.097083256,-0.13363469,-0.0014341762,0.036343057,-0.045341585,0.1197154,0.100217134
0.021329744,-0.106101386,-0.1446876,-0.14627989,0.00043761727,-0.09044977,-0.17029643,-0.032460667,0.035603072,-0.042240236,0.100269735,0.0061360425
0.042074237,-0.24135286,-0.1953164,0.40419158,0.12508447,-0.116773106,-0.14714766,0.025585223,0.16284454,0.113909714,0.28900236,0.20074044
-0.00012615323,-0.41664374,-0.33867964,0.44433042,0.31620902,-0.2667342,-0.27273196,-0.016282758,0.23747022,0.17990206,0.11430125,0.22664548
0.39325762,-0.58391374,-0.5546026,0.45600116,0.39778838,-0.29979333,-0.443214,-0.05313662,0.44565302,0.4560185,0.42396784,0.4117264
0.48554552,-0.7987344,-0.8504303,0.52403265,0.42889652,-0.6562736,-0.5995145,0.40322185,0.43407026,0.45503783,0.5114862,0.48130196
0.5160657,-0.89722914,-0.911871,0.53000623,0.43135282,-0.7551166,-0.44426516,0.40156096,-0.52834,-0.29386863,0.4658036,0.4601872
0.54007554,-0.7556735,-0.8236542,0.43491945,0.4370191,-0.45300964,-0.25483862,0.27856594,-0.5651283,-0.29898712,0.5394205,0.5315901
0.49189174,-0.44457725,-0.53049475,0.3970818,0.458248,-0.2674016,-0.15380996,0.32295123,-0.47344625,-0.43837,0.41857675,0.4256618
0.3937002,-0.20679754,-0.43497738,-0.02562662,0.4032153,-0.0864575,-0.06250238,-0.020103697,-0.29885435,-0.34788087,0.3917363,0.3381504
-0.14835833,0.030029444,0.013463518,-0.084695704,0.002759986,-0.013233098,-0.049517334,-0.20441905,-0.20550328,-0.22848229,-0.028048249,-0.06453711
-0.24795453,0.07200241,0.087838784,-0.17918451,-0.20270386,0.058478378,-0.0106274355,-0.14972408,-0.07033511,-0.10249132,0.016887072,-0.2200949
-0.2645879,0.16430053,0.29036388,-0.20721123,-0.27524948,0.093323424,0.044282455,-0.17849478,-0.058209762,-0.06638495,-0.05658964,-0.18245924
-0.3370732,0.24705374,0.37047485,-0.19666027,-0.31517908,0.09811758,0.06455171,-0.17274468,-0.015650634,-0.010819371,-0.07588963,-0.23624276
-0.29435572,0.39144707,0.39338368,-0.22250278,-0.364402,0.1111619,0.11046886,-0.15791506,-0.010920925,-0.0054831253,-0.0909844,-0.25782922
-0.2819394,0.40392715,0.3944957,-0.26091552,-0.38296825,0.10419273,0.16343048,-0.14918154,-0.006568665,0.028426437,-0.17141032,-0.28811753
-0.5076708,0.3985647,0.41205743,-0.32096413,-0.4289161,0.16662213,0.27028713,-0.16768369,0.010015927,0.035667453,-0.20018065,-0.31878972
-0.5664865,0.3943512,0.42702967,-0.27924213,-0.517864,0.099751465,0.23840271,-0.17881052,0.033998404,0.049229223,-0.19137326,-0.3552192
-0.6385566,0.39610237,0.43424308,-0.36424422,-0.5555799,0.1870324,0.3432333,-0.18479212,0.07436099,0.069348335,-0.25008902,-0.35936898
-0.5583478,0.3947053,0.43276522,-0.33897185,-0.5513637,0.30851078,0.39006868,-0.15305439,0.15459862,0.150116,-0.20616557,-0.33443323
-0.4675266,0.3902874,0.40171435,-0.32863352,-0.45588598,0.19799545,0.24646349,-0.098456115,0.20949434,0.18933709,-0.1330048,-0.29281235
-0.2568794,0.2405593,0.24878429,-0.21218918,-0.29147682,0.16448027,0.15425177,-0.057277594,0.25594026,0.21379086,-0.050820135,-0.20325164
-0.16692658,0.15496142,0.33352014,-0.18254757,-0.17878664,0.110716805,0.049164087,-0.0053805783,0.22581866,0.2138178,-0.039232284,-0.05266599
-0.06707607,0.10623861,0.21790016,-0.11272107,-0.09710605,0.12407314,0.056221146,-0.002123442,0.17616594,0.22880769,0.038247425,-0.0015209604
0.038115416,0.058754347,0.12809338,-0.07833951,-0.027908914,0.0555884,0.038499538,-0.0105623845,0.12134179,0.22808963,0.023931403,0.05691136
0.097679645,0.0971875,0.0014291992,-0.0612647,-0.009441036,0.039039668,0.062352993,-0.011515436,0.084940195,0.2093503,0.044660702,0.042987064
0.10023516,-0.015732868,-0.044610705,-0.04841102,0.0037667572,0.0026844973,0.0350392,-0.022335034,0.06586403,0.19383654,0.05066681,0.041871164
0.07824067,-0.028826503,-0.05051357,-0.023522835,0.009465709,0.017188942,0.03641187,-0.03120845,0.053657565,0.19171624,0.06872921,0.024892433
0.062828764,-0.055842124,-0.021017376,-0.02265751,-0.0020633906,0.011869379,0.018039951,-0.04915585,0.039818116,0.19139215,0.058089737,0.030386806
0.04415533,-0.04431321,-0.011694256,-0.012580446,0.031528153,0.0028543395,0.0048303823,-0.020503597,0.0493559,0.18857756,0.11489994,0.04933185
0.026615413,-0.057450682,-0.006784782,-0.013344568,0.020771734,-0.022857051,-0.008366479,-0.015814655,0.052130993,0.1846298,0.10568299,0.053590793
0.024472296,-0.05118685,-0.020679893,0.0020662814,0.027860284,-0.017315863,-0.028547397,-0.0059421556,0.049997896,0.16290326,0.1038884,0.03760995
-0.0016891046,-0.035459872,-0.022871587,-0.008899722,0.0030817888,-0.02234108,-0.029765721,-0.01790645,0.05455716,0.15723982,0.09573837,0.0448493
-0.006881844,-0.028964194,-0.016407834,-0.020724727,0.00064113725,-0.005689321,-0.028469766,-0.0064058024,0.05320013,0.13287629,0.09248006,0.029197408
-0.0063367533,-0.0070308778,0.003913025,-0.043998517,-0.02731356,-0.0026902193,-0.037984595,0.004659351,0.05521764,0.132777,0.078145884,0.061902933
0.032340392,0.006845814,0.012062889,-0.06287694,-0.015869,0.01578343,-0.022885736,0.005428827,0.04453938,0.12445333,0.081188284,0.08510165
0.027765378,0.0401608,-0.0125309825,-0.08061458,-0.01652871,0.015421837,-0.007263831,-0.007989445,0.05467432,0.13584228,0.09207069,0.10616138
0.0715977,0.10785162,-0.016332842,-0.06838029,0.00057488674,0.015433814,-0.0017357153,0.008246562,0.04149833,0.118092425,0.104839385,0.10354568
0.087917596,0.07646507,-0.02382665,-0.062165905,-0.01274913,0.015913157,-0.032120112,-0.016859334,0.027142085,0.12889422,0.10023044,0.119357154
0.08861716,0.032167867,-0.022032004,-0.052078474,-0.025616853,0.004150218,-0.0656475,-0.004905423,0.010481719,0.097369514,0.106498316,0.082751125
0.033247966,-0.011721343,-0.028349223,-0.019087797,-0.04621558,-0.01602873,-0.059871893,-0.00021600723,0.014016753,0.08842713,0.093353204,0.08573536
0.0053072968,-0.07975818,-0.015614373,-0.015790401,-0.01744296,-0.021576483,-0.04337651,0.0055823936,0.033880167,0.07367493,0.076726146,0.09599259
0.03142761,-0.02655299,-0.037377134,0.054116674,0.032977182,-0.058218997,-0.062394198,0.0035693196,0.07907119,0.04893596,0.07145426,0.10881722
0.060090806,-0.076446846,-0.039801214,-0.0085238535,0.053877167,-0.07648513,-0.09916993,0.01803426,0.039222524,0.036445502,0.05863127,0.06298143
-0.004814945,0.04402469,-0.084952086,-0.025721122,-0.0022869667,-0.06715255,-0.087148905,0.027015906,0.058535192,0.06598761,0.06985095,0.032274567
0.048272405,0.20318076,-0.16376166,0.07172015,-0.0022262894,-0.05579619,-0.041702777,0.021455541,0.04129602,0.015193307,0.03438416,0.0029595408
0.022401102,0.055539023,-0.24685349,0.49047315,0.15030676,-0.103511244,-0.053241525,0.10572281,0.24568814,0.04952123,0.08760104,0.2273714
0.15383013,-0.26755008,-0.40692776,0.48212293,0.39521167,-0.2936074,-0.040537484,0.32768103,0.3804786,0.0022420548,0.042856026,0.39188161
0.4169717,-0.6205545,-0.53301615,0.39531118,0.4594408,-0.39146513,0.09053889,0.39506972,0.4995573,0.5172688,0.41619465,0.46258768
0.52803296,-0.91024995,-0.6711041,0.39453968,0.56018305,-0.6155406,-0.65692365,-0.25585702,0.23034686,0.09763058,0.40369913,0.47418532
0.56645775,-0.8789724,-0.7144028,0.39364517,0.554649,-0.5499821,-0.7810524,-0.56345224,-0.75858766,-0.3800614,0.17913263,0.46738937
0.59422326,-0.6712792,-0.8258263,0.39052486,0.5188198,-0.49644402,-0.6225116,-0.28192085,-0.4115518,-0.25109652,0.26283637,0.49948406
0.50302756,-0.40210566,-0.6337651,0.3907271,0.41321975,-0.37402523,-0.35170975,-0.13385357,-0.38246235,-0.19571522,-0.040274877,0.30639187
0.40648276,-0.17014305,-0.31319267,0.058175217,0.29101562,-0.21836206,-0.1853571,-0.04844203,-0.21954082,-0.07317328,-0.13174805,-0.3224212
-0.2175004,0.0273934,0.105358556,-0.10092919,-0.12192356,-0.004655268,0.080003574,-0.04361052,-0.101199046,-0.089831844,-0.19421174,-0.15358281
-0.32981864,0.14763775,0.17979091,-0.092879824,-0.16856007,0.0727197,0.10199968,0.017798124,-0.036893096,-0.042512707,-0.14404467,-0.13153115
-0.41513488,0.20795956,0.33540773,-0.10826616,-0.33872145,0.124522895,0.19558245,0.032356497,-0.022917071,-0.05923989,-0.1992356,-0.18001749
-0.43886036,0.22777703,0.32752433,-0.12490799,-0.33586666,0.13628288,0.13235542,-0.012322905,0.0023040134,-0.05413563,-0.1740968,-0.13446605
-0.53932476,0.25668448,0.39294887,-0.1792085,-0.45921844,0.14985716,0.28981876,-0.015328786,-0.026210412,-0.06502382,-0.22269812,-0.2179983
-0.5596264,0.26342022,0.39537027,-0.17641844,-0.50568205,0.18169299,0.26983696,-0.048779517,0.009486092,-0.030745499,-0.21816912,-0.24883802
-0.57397985,0.32636085,0.41300285,-0.24066472,-0.47313854,0.21530305,0.40507758,-0.05535452,0.00552741,-0.034831017,-0.2320433,-0.2666848
-0.64137733,0.35769594,0.4529698,-0.22664127,-0.49762306,0.2934307,0.4062489,-0.059710052,0.045140564,0.006318306,-0.18296418,-0.25264564
-0.67035335,0.39047074,0.45122978,-0.25094748,-0.51197344,0.30767775,0.41525465,-0.029235851,0.08951387,0.029765215,-0.13802134,-0.20266111
-0.60152996,0.3951944,0.43375903,-0.24723715,-0.52485853,0.3128807,0.41976625,-0.04717904,0.15068801,0.09642093,-0.05471984,-0.15668038
-0.49675813,0.33091077,0.399457,-0.2606312,-0.4632997,0.36665672,0.40333715,-0.028649475,0.19506292,0.1427404,-0.0052016205,-0.021264834
-0.32902282,0.22304437,0.26345572,-0.2279435,-0.38248917,0.24325185,0.35021785,-0.012849071,0.18677986,0.18673198,0.03451094,0.07247258
-0.14321248,0.17206068,0.15391517,-0.19758782,-0.1191917,0.13296112,0.07423912,0.034646347,0.12123561,0.14941631,0.07254595,0.10236192
-0.041745022,0.10656481,0.11479357,-0.109092124,-0.015272115,0.06999642,-0.09273251,0.022367978,0.08888342,0.12647265,0.08332113,0.09417921
0.01295503,0.072114654,0.038416427,-0.079295225,-0.0045055444,0.013543165,-0.09509732,0.020036966,0.035855085,0.056717407,0.059972916,0.079764105
0.0026090385,0.0061198603,-0.008286376,-0.022344058,0.007386997,0.01227189,-0.090716384,0.019933235,0.034590654,0.029262144,0.061350953,0.08096469
-0.037575904,0.017536363,-0.041857358,-0.008240156,0.006372157,-0.028219597,-0.02391669,0.025577152,0.0049624634,0.007804176,0.056960613,0.07089106
-0.0401015,-0.03009626,-0.03548452,0.014261471,-0.024174271,-0.03953871,-0.028610615,0.014085315,0.019720798,0.036080696,0.03544249,0.0642762
-0.06761079,-0.008769943,-0.026384488,0.031501684,-0.026585005,-0.050305337,0.015389181,0.014978123,0.008442202,0.026290318,0.018116131,0.06910424
-0.061100304,-0.027226245,-0.017264588,0.03814059,-0.03368947,-0.03471338,0.0077101253,0.017432354,0.023992524,0.04784531,0.023874305,0.08183446
-0.057611972,-0.014182719,-0.01721939,0.029972693,-0.023180801,-0.029461646,0.00849471,0.01956514,0.009978499,0.004259948,0.0019400691,0.0890688
-0.04310644,-0.01765908,-0.02165989,0.013927543,-0.009928824,-0.013982785,0.005766149,0.013009798,0.025238726,0.012538461,0.016529843,0.08663778
-0.01232803,0.014960067,0.01120577,-0.014706683,-0.004295263,-0.027038718,0.011248383,0.0027770924,0.014123216,-0.003594085,0.017198922,0.080715284
-0.012398263,0.0066201612,0.010533778,-0.021878475,0.006805553,-0.032595646,0.039483037,-0.017051326,0.022931578,0.017408937,0.031168703,0.08400335
0.0013783566,0.04519014,0.019566214,-0.047284722,-0.015923703,-0.030592192,0.05663004,-0.025132906,0.001379489,0.004269097,0.040168773,0.081794225
0.040698357,0.038608722,0.01911297,-0.037853327,-0.07223923,-0.026829746,0.049665295,-0.028626189,0.02904489,0.007425023,0.03528703,0.07750834
0.045854785,0.0784177,0.025913367,-0.07520039,-0.070051014,-0.0069603394,-0.0066162874,-0.035062894,0.0033940542,-0.0113897165,0.035603996,0.0600552
0.05095672,0.046954084,-0.018766643,-0.06270275,-0.026395418,0.017261518,-0.07630211,-0.033066314,-0.0089786025,-0.028166322,0.044136085,0.05394578
0.06332303,0.022956926,-0.027036186,-0.07048614,0.017061336,-0.020733664,-0.124724865,-0.0253002,-0.04006014,-0.06093941,-0.016691685,0.047825273
0.037078004,-0.01593857,-0.04231818,0.0039529298,0.047086056,-0.021765877,-0.03864065,-0.010100468,-0.009339388,-0.04086878,-0.019084074,0.04725552
0.026125804,-0.008936883,-0.02473562,-0.009420921,0.03030141,-0.021910438,-0.03807825,-0.007508375,-0.008613761,-0.057298508,-0.011227404,0.041344427
0.03754254,-0.009571439,-0.030877577,0.07135946,0.045165785,-0.023745304,0.017645465,-0.017353283,0.016108908,-0.024700534,0.0072490196,0.052700378
0.015833218,-0.009623528,-0.01442824,0.02901431,0.018722849,-0.03585092,-0.02694342,-0.021010496,0.011234645,-0.048022736,-0.00091350055,0.041965112
-0.048205297,-0.0300418,-0.0737903,-0.049977917,0.050748523,0.019739477,-0.012573385,0.021208562,0.007838119,-0.04297594,0.0006106495,0.042810664
-0.053083185,-0.08629951,-0.061090775,-0.02333977,-0.05511252,-0.080613874,-0.0038389673,0.028684076,0.019051094,-0.043037843,0.006041602,0.025823453
0.07469073,-0.110578805,-0.114206776,0.39678535,-0.050171208,-0.12306618,0.036094476,0.039349165,0.046797134,-0.021897808,-0.0069793225,0.009350772
0.013008993,-0.21504559,-0.018497502,0.4773533,-0.10392198,-0.028351367,0.27250206,0.024399087,0.36389372,0.32434475,0.3075807,0.119356535
0.39929065,-0.3220935,-0.19495422,0.41025066,-0.10816018,0.39227697,0.39136043,0.39308876,0.45320812,0.45500237,0.40970746,0.40758657
0.4912157,-0.37884024,-0.79243547,-0.10521912,0.39805347,0.37973204,-0.15068409,0.39102724,0.30618346,0.18327996,0.08822168,0.38349605
0.5779532,-0.2538572,-0.85774916,0.34017572,0.42470965,0.39588034,-0.66416174,0.39433554,0.19290662,-0.17979723,-0.059347156,-0.011454826
0.54730296,-0.36678416,-0.76032823,0.39089015,0.42210937,0.3943493,-0.8068539,0.39147398,0.11021052,0.01591113,0.08440934,0.04399721
0.54206795,-0.45432356,-0.7725307,0.20714216,0.42446432,0.1920293,-0.75412035,0.3900795,-0.14536919,-0.34070614,0.14358999,-0.020599311
0.4858533,-0.37643835,-0.5652418,0.1927854,0.43916,-0.39937133,-0.39095676,0.33684966,-0.4397095,-0.46644714,-0.087050155,-0.1736165
0.12568647,-0.08068916,-0.10851709,-0.055525236,0.0149352765,-0.20964247,-0.07947395,-0.003674878,-0.23048766,-0.3455219,-0.075767085,-0.21162462
-0.32844228,0.039951745,0.17739832,-0.08959227,-0.18232451,0.031739388,0.12414544,-0.12917295,-0.12014011,-0.19311799,-0.1449161,-0.23315534
-0.39456472,0.06499004,0.21856509,-0.12385106,-0.2891838,0.05108528,0.17365134,-0.0980079,-0.0887004,-0.15289862,-0.13800614,-0.2264842
-0.47539654,0.06512323,0.32086802,-0.16021898,-0.3021009,0.02757464,0.258791,-0.080070555,-0.03674039,-0.11222526,-0.15948327,-0.26290354
-0.5466913,0.07158554,0.39025855,-0.14214204,-0.3372267,-0.028331237,0.31500024,-0.057418007,-0.037159074,-0.10239913,-0.17588685,-0.21913616
-0.5492902,0.15253106,0.39072895,-0.17662679,-0.34855574,-0.012169863,0.351574,-0.08245649,-0.031245757,-0.06774233,-0.16460767,-0.2747164
-0.5648565,0.23781694,0.40256682,-0.17995526,-0.39586163,0.045404337,0.39027426,-0.051189017,-0.025931355,-0.03869978,-0.12386403,-0.29061207
-0.6345953,0.26426196,0.397086,-0.20612419,-0.35778806,0.041338477,0.39397353,-0.062416818,0.0141339125,0.004155314,-0.12787826,-0.31386948
-0.59386766,0.07715187,0.39676002,-0.22652428,-0.31854698,0.06430772,0.39174548,-0.04733426,0.059643473,0.024984285,-0.086407594,-0.293055
-0.6563127,-0.027766539,0.3982206,-0.26881745,-0.21552539,0.056416623,0.39266533,-0.042313598,0.10627966,0.07202479,-0.0693352,-0.23797053
-0.61150384,-0.04302163,0.39686838,-0.29645813,-0.15534668,0.06398478,0.37311932,-0.049117647,0.11019998,0.07394229,-0.022890234,-0.16697793
-0.40076113,-0.0020657748,0.39543065,-0.30903205,-0.13942443,0.08406994,0.3919068,-0.031246204,0.10518352,0.04008579,0.004277561,-0.10880488
-0.19252345,0.07286635,0.24142733,-0.22466326,-0.066759355,0.07646234,0.0076320777,-0.02786082,0.08874951,0.026469126,0.02154312,-0.043854937
-0.09410079,0.13274586,0.071733736,-0.14979808,-0.061884318,0.05174006,-0.13542774,-0.036450204,0.05377949,-0.008390916,0.020594783,0.00510712
-0.018198954,0.0967147,0.023242041,-0.09016979,0.0033131419,-0.008087519,-0.1417755,-0.0025117046,0.034673583,-0.043367766,0.012022572,0.03443649
0.022512833,0.08771354,-0.021272251,-0.06913847,-0.0011972779,-0.004960407,-0.13623126,0.023080273,0.014967784,-0.04835539,0.019523941,0.05409629
0.024624048,0.07526339,-0.028552072,-0.054309998,0.0019524669,-0.02674094,-0.114615485,0.027300993,0.0144803235,-0.04246478,0.0133044915,0.049526192
0.010438182,0.055797946,-0.004005351,-0.04253487,-0.030072678,-0.02543333,-0.103544086,0.03429626,0.010752085,-0.030523293,0.044834014,0.054711133
0.010878312,0.058719777,0.009654818,-0.016016724,0.011641662,-0.02342633,-0.06447244,0.047347076,0.010896818,-0.017360434,0.04699292,0.05952804
-0.022877248,0.041340232,0.004746908,-0.018996427,-0.01060312,-0.007994481,-0.072764255,0.10158464,-0.0048757703,-0.028618833,0.043507513,0.06396629
-0.0029868693,0.042220246,0.010158041,0.0069002607,0.0104048075,-0.011257232,-0.052177627,0.060061883,0.0029603753,-0.02723479,0.04349115,0.06906615
-0.01608376,0.022732424,0.00068888057,-0.012652229,-0.0062878495,-0.006172579,-0.07429777,0.025758974,-0.010528592,-0.03256373,0.039275877,0.0811193
0.009165388,0.03504194,0.038699128,-0.07091965,-0.00869741,-0.03266644,-0.079854004,0.009899055,0.0071724616,-0.026125595,0.026207346,0.0857621
0.017231904,0.042968977,-0.020235071,-0.07650862,-0.0077324756,-0.01661145,-0.09097547,0.000403434,0.0049730726,-0.0070312354,0.029948099,0.084200405
0.037720032,0.029101616,-0.021508804,-0.113613464,-0.012684499,-0.002674484,-0.07918814,0.032266766,-0.0021012693,-0.011360246,0.016603792,0.08147374
0.037869602,0.04200239,-0.027962605,-0.14670077,-0.03528819,0.04193251,-0.1088272,0.01802291,-0.026253954,-0.010103955,0.008176263,0.06513504
0.053082056,0.09194115,-0.019954775,-0.124048546,-0.021170583,0.05612792,-0.14804743,0.0114168925,-0.02361931,-0.017700462,-0.0028617005,0.05694751
0.056304805,0.13903007,-0.02676816,-0.11579335,-0.038905345,0.094574384,-0.19651265,-0.009737393,-0.04373081,-0.03405636,-0.0064624543,0.04473732
0.07673213,0.21642525,-0.03782696,-0.034899898,0.040252324,0.016417697,-0.17988034,0.041252196,-0.03017853,-0.02819095,0.0016904159,0.05207128
0.06663964,0.14944196,-0.027535867,-0.051022027,0.024920458,-0.002090898,-0.14316957,0.04416937,-0.051512443,-0.021838441,0.017376134,0.05490727
0.040551882,0.08570962,-0.07196096,0.043065272,0.0694974,-0.061878234,-0.14501642,0.06321504,-0.04149583,-0.040214773,0.023919847,0.04234552
0.019387797,0.029144078,-0.07046684,-0.023965836,0.0027092332,-0.014135015,-0.14342433,0.051388852,-0.07887015,-0.03466287,0.03167133,0.038949683
-0.013809369,0.00025224686,-0.080507636,0.02463486,-0.025710072,-0.035235327,-0.13340949,0.07109655,-0.05667175,-0.0155167645,0.028464852,0.047938827
-0.034749698,-0.049036156,-0.08952203,-0.085782036,-0.13948065,-0.0071939775,-0.10474418,0.052773397,-0.07840817,-0.011086218,0.0077132247,0.03613829
-0.09374933,-0.045100324,-0.0638787,-0.05295376,-0.04040237,-0.06217674,-0.10360329,0.101211935,-0.049030952,-0.028006917,-0.00537438,0.021933017
-0.111396044,-0.0875833,-0.082227096,-0.15610164,-0.034048,-0.099551946,-0.11265481,0.10446041,-0.10975494,-0.03934988,-0.0012873702,0.014676888
-0.01629837,-0.036261685,-0.0737482,0.4017497,0.19475894,-0.23187293,-0.17738856,0.25042224,-0.09758817,-0.06079564,-0.03203318,0.012187444
-0.053664014,-0.14227152,-0.19678994,0.4452796,0.39482957,-0.2838085,-0.12263557,0.395383,-0.17696428,-0.038682908,0.06364276,-0.00037693974
0.4146696,-0.25469637,-0.33675322,0.44468182,0.44056684,-0.46606737,-0.119238876,0.5092634,0.3912505,0.39029965,0.17214583,0.08378031
0.51259774,-0.35007277,-0.54438174,0.50139505,0.5262775,-0.84022903,-0.46417484,0.411018,0.43833,0.42414045,0.41016912,0.39381358
0.5220583,-0.60931903,-0.79698575,0.5065879,0.5566093,-0.8467533,-0.885321,0.2950328,-0.768746,-0.16471131,0.38994524,-0.08144792
0.5611964,-0.4720865,-0.64846575,0.44398475,0.5319422,-0.7204637,-0.844487,0.106055945,-0.72422826,-0.28278998,-0.1289963,-0.10145814
0.50366807,-0.25809646,-0.50925034,0.40549526,0.46695992,-0.536688,-0.58295,0.15309481,-0.5394669,-0.17172259,-0.106409006,-0.0788318
0.39259872,-0.043276384,-0.23738505,0.18595211,0.39659023,-0.30220458,-0.2806537,-0.009488119,-0.25458577,-0.1739001,-0.12192109,-0.08233886
-0.043264635,0.088835165,0.0029743523,-0.005403198,0.04884769,0.0011924797,-0.06301875,-0.038305335,-0.18182631,-0.10941692,-0.048651166,-0.042806022
-0.19004855,0.11389754,0.101276204,-0.08181761,-0.1800574,0.14419794,0.051274087,0.041872025,-0.08417741,-0.052260548,-0.050836958,-0.03513332
-0.31409276,0.1284159,0.16188176,-0.11305638,-0.28450546,0.24661027,0.07195634,-0.009641885,-0.09311275,-0.0077707395,-0.06766665,-0.038718678
-0.35673103,0.19344492,0.19476256,-0.16812699,-0.28057808,0.2336189,0.10636549,0.012764655,-0.047775943,0.002533788,-0.055959057,-0.017583882
-0.39434144,0.28927058,0.30057603,-0.20285635,-0.32921517,0.2365748,0.11289873,-0.043128453,0.0012750619,0.050833333,-0.04076304,-0.004180407
-0.4549589,0.39307275,0.3916519,-0.22518648,-0.42690566,0.31311545,0.16354682,-0.0125814,0.01247976,0.07863063,-0.021098552,0.0052205147
-0.49212152,0.39313945,0.39294887,-0.27135822,-0.43992835,0.39560217,0.27620986,-0.014552758,0.05374612,0.09615983,-0.0113528855,0.018062415
-0.409537,0.39185157,0.3833305,-0.31883252,-0.5027181,0.39596197,0.32070303,0.0071719848,-0.0021680559,0.09836476,0.012426601,0.034394074
-0.42317358,0.39560106,0.3568624,-0.36016053,-0.53736854,0.4015338,0.39409035,0.010372684,0.012933398,0.10833075,0.042380415,0.061642863
-0.4227974,0.39935654,0.35204062,-0.3366766,-0.5502249,0.3954296,0.39229506,0.08844058,0.03821889,0.0810081,0.065551534,0.07574142
-0.36985776,0.3902712,0.25874045,-0.42786762,-0.49084294,0.3911112,0.21140538,0.11028816,-0.023037856,0.04971447,0.043828286,0.048050478
-0.17298928,0.15031947,0.13585088,-0.3285562,-0.33145753,0.39130622,0.085589245,0.15133607,-0.045199927,0.03196649,0.008357986,0.0305514
-0.13399698,0.20443177,0.111703515,-0.21986309,-0.23489557,0.22545774,-0.039106056,0.10852101,-0.06859831,0.0039501283,-0.003232617,0.020145938
0.015024396,0.12748423,0.047324747,-0.04775284,-0.1353741,0.07850111,-0.09820495,0.09149217,-0.064155705,0.008823911,-0.013032116,-0.008275916
0.0039171674,0.09050959,0.045056485,-0.021780087,-0.08196651,0.08415581,-0.09771084,0.055427458,-0.06663801,0.0069854017,-0.019116398,-0.017316518
0.038019978,0.011235032,0.034439143,0.04947381,-0.036540058,0.007877753,-0.09581084,0.032303743,-0.0793204,0.005132034,-0.024822053,-0.029698487
0.008770063,0.0048054685,0.027238067,0.07133954,0.0048050215,0.004498392,-0.061783586,0.016228115,-0.04556223,0.0006685256,-0.035951104,-0.021750119
0.035611287,-0.013633926,0.028600251,0.06683023,-0.0273909,-0.024344401,-0.024694338,0.03204318,-0.04952634,-0.00015744567,-0.05178824,-0.029357877
-0.015932672,-0.0025725905,0.027327228,0.06745902,-0.0061382772,-0.02667292,-0.025711143,0.0002565086,-0.041753054,-0.0033940542,-0.049793098,-0.01032423
-2.2858381e-05,0.0012256199,0.027770916,0.05891995,-0.018630108,-0.02773685,-0.01818647,0.0027565886,-0.046466988,-0.001327782,-0.055523068,-0.01259612
-0.005658238,0.020352742,0.013513667,-0.0043553733,-0.0282338,-0.022292646,0.003459261,-0.010615665,-0.043360624,0.014849376,-0.06132797,-0.009344783
0.023257382,0.05987418,0.030477082,-0.06820667,-0.046062604,0.010521471,0.04087411,0.0050145863,-0.035680905,0.02457547,-0.04651293,-0.013194898
0.047259953,0.08599166,0.04365175,-0.07424546,-0.019721007,-0.003307539,0.060227875,-0.026403993,-0.03185154,0.020132205,-0.040693834,-0.0143727
0.048490908,0.07217724,0.041326396,-0.0783965,-0.03660024,0.0023586706,0.047147132,-0.01950553,-0.03044975,0.016513336,-0.0506534,-0.0077570016
0.03276209,0.081876695,0.008653663,-0.06460949,0.0033802858,0.01905747,-0.043858774,-0.039621282,-0.0045226505,0.021958547,-0.043578397,0.0037753403
0.017067026,0.046117473,0.003386246,-0.07414952,0.025694376,0.027063405,-0.12327051,-0.010292495,0.009395919,0.014511699,-0.05033869,0.005381532
-0.013292274,0.028862773,0.0046994938,-0.0686202,0.09308628,-0.0020219954,-0.15309316,-0.009442168,0.0025500003,0.015690142,-0.040061273,0.004374834
0.008691569,0.020357657,0.018268103,-0.062408447,0.08696843,-0.01134481,-0.12197617,-0.012259584,0.00753606,0.003268409,-0.05585252,-0.00053891534
-0.018197494,0.01946984,0.010099902,-0.008911463,0.07301282,-0.118407555,-0.073123716,-0.01870706,-0.0039368663,0.009280117,-0.04428073,-0.011936097
0.0124930795,0.004568903,-0.011648128,-0.0019136644,0.027494205,-0.031565845,-0.026944313,-0.010986482,0.015023978,-0.005941649,-0.090379365,-0.01336638
-0.0089912675,0.0058605,-0.02063059,0.007312972,0.01609255,-0.0891251,-0.038379524,-0.03453755,0.0071926666,-0.008714306,-0.10467362,-0.0149910245
0.001354634,0.018926328,0.0029745908,-0.0012778633,-0.0017928759,-0.060878124,-0.052322157,-0.019456673,0.017227018,0.004178291,-0.14584391,-0.007355587
0.033439353,0.020826695,-0.014863648,-0.034642566,0.06995837,0.03217123,-0.09194399,-0.06476305,-0.050468743,-0.04694912,-0.14275666,-0.01465168
0.11593071,-0.012578689,-0.045487076,-0.02856309,0.08729333,0.043377314,-0.101549335,-0.012886854,0.048398145,-0.0040743127,-0.13551463,-0.017148184
0.071295775,-0.11804076,-0.11090126,0.052159853,0.09111923,-0.16737284,-0.17293608,0.04034944,0.061053332,0.03635922,-0.15408917,0.017112968
0.014923269,-0.1755933,-0.23347202,0.3910469,-0.02846646,-0.6305959,-0.08954367,0.42437783,0.38357762,0.23775437,0.24562539,0.104584865
-0.0017843824,-0.39296383,-0.46528625,0.37735888,-0.42234418,-0.9227114,0.39347237,0.11426948,-0.036515057,0.07693821,0.35498008,0.16907947
-0.022757892,-0.45266947,-0.5478311,0.30816635,-0.3476924,-0.9139094,0.02683332,-0.68205714,-0.42553124,0.17066784,0.13141981,0.26822427
-0.013918932,-0.24615908,-0.29292583,0.31027102,0.20389652,-0.67628354,-0.38719285,-0.5777104,-0.4825443,-0.08492688,-0.33249953,0.25972557
-0.014548944,-0.18143587,-0.04064998,0.178335,0.19246654,-0.0022809168,-0.1734451,-0.42505798,-0.25207198,-0.47328633,-0.33440474,0.018623881
-0.0016822799,-0.08089761,0.041231934,-0.02325774,0.18991868,0.3014732,-0.11715941,-0.14917363,-0.1104793,-0.28770092,-0.28493065,-0.08344735
-0.020895062,0.055524554,0.11494311,-0.093740284,0.08441813,0.28609583,-0.025779674,-0.122954935,-0.06465977,-0.15794644,-0.24639758,-0.13993895
-0.02378361,0.08685122,0.14589576,-0.01512439,0.14340983,0.24173628,0.012251897,-0.097638994,-0.028325757,-0.16012526,-0.2598344,-0.10118518
-0.008799087,0.124027155,0.16517308,-0.03620186,0.17617607,0.2712203,0.056554437,-0.1352624,-0.06282238,-0.13117465,-0.2786078,-0.09300876
-0.001966593,0.13451385,0.15627444,-0.033525206,0.16982108,0.23560415,0.08840188,-0.084448315,-0.024583422,-0.12944518,-0.27478927,-0.0959152
-0.002243366,0.15713876,0.16454667,-0.03345043,0.18650481,0.33503628,0.11761624,-0.11954435,-0.050597727,-0.13438341,-0.2685968,-0.07888099
-0.010834598,0.19109663,0.16731705,-0.02047193,0.19742347,0.3916925,0.13283281,-0.08629664,-0.0061303503,-0.10100666,-0.27197242,-0.056288853
-0.0065880953,0.22934811,0.17121978,-0.030574773,0.18673338,0.40504503,0.1701694,-0.106330335,-0.0029871375,-0.09269256,-0.28154325,-0.042617835
-0.009121403,0.38684928,0.18967704,-0.015863072,0.21578802,0.43184465,0.1833865,-0.031168345,0.07986911,-0.030302186,-0.24163501,-0.020055793
0.00497948,0.39082676,0.16383725,-0.014148811,0.19964953,0.420219,0.20907289,-0.02181753,0.09900792,-0.0055710096,-0.1829216,-0.028690092
-0.005588086,0.36060488,0.14324996,0.027595874,0.18838848,0.39876783,0.13298164,0.014437209,0.14456569,0.021612855,-0.12631206,-0.007833321
-0.012452704,0.39015687,0.11756649,-0.013987523,0.17441393,0.29039344,0.25725353,-0.00048595664,0.11116149,0.07231261,-0.095516905,-0.016212652
-0.01958087,0.3272501,0.10328372,-0.00906833,0.14583857,0.16108793,0.084823795,0.026402416,0.10764348,0.031180225,-0.0750978,-0.02722276
-0.01565394,0.123683676,0.08853878,0.008771254,0.104054995,0.064983904,0.028581016,-0.0041763242,0.04308315,-0.033999447,-0.08474237,-0.031087361
0.0020029517,0.07696816,0.06770379,0.031653643,0.09396305,0.009597305,-0.032834288,0.0021434692,0.047179814,-0.052861575,-0.10358613,-0.029019818
0.009620608,0.030468626,0.059525013,0.04405423,0.08070918,-0.019612838,-0.03535382,-0.033155892,0.013158278,-0.09165781,-0.123453006,-0.03826025
0.01112442,0.021455929,0.046563517,0.02695688,0.07745392,-0.025757873,-0.0369175,-0.020596035,0.020755231,-0.08325847,-0.10710975,-0.038269863
0.002721273,0.024865478,0.04491268,0.022244181,0.0689864,-0.013067813,-0.036130283,-0.045732882,-0.011308396,-0.08172943,-0.10350593,-0.038501266
-0.0023990227,0.022487514,0.040164996,0.025619948,0.054628026,-0.042284116,-0.044918213,-0.023431452,0.013881567,-0.069663696,-0.08105262,-0.031570222
-0.0015574979,0.039864503,0.038726445,0.030995212,0.04840055,-0.017659318,-0.038283702,-0.047979534,-0.0034363135,-0.05622406,-0.08529703,-0.029332237
-0.006853354,0.0640523,0.05488136,0.043702316,0.048404656,-0.011809604,-0.042298574,-0.031501476,0.025744142,-0.0417488,-0.07554887,-0.025920514
-0.010568791,0.05753715,0.055189442,0.042121686,0.0466072,-0.018112198,-0.050942246,-0.053536855,0.0029564712,-0.029887803,-0.09690866,-0.022511225
-0.022962527,0.032224163,0.056311816,0.037045624,0.03387314,-0.020558828,-0.04264827,-0.042837437,0.019335303,-0.019529602,-0.10360435,-0.022961782
-0.018069446,0.022743236,0.04626414,0.023191346,0.03025794,-0.016905634,-0.042471714,-0.06444897,-0.004280988,-0.024360277,-0.123475075,-0.01317693
-0.0192644,0.024891509,0.051701598,0.01042516,0.018133173,-0.04945514,-0.026106445,-0.053018726,0.017662954,-0.018237654,-0.091923535,-0.004101492
-0.002133098,0.01811205,0.043612752,0.0011617537,0.013224039,-0.048773628,-0.021789558,-0.062287506,-0.029818425,-0.030667193,-0.12301329,0.008227521
-0.013022045,0.008132934,0.04529641,-0.0329386,-0.018485883,-0.070429206,-0.051059566,-0.04135195,-0.022559958,-0.050920874,-0.10818151,-0.028562434
-0.020528322,0.014416203,0.03471112,-0.042622685,-0.011162115,-0.06773871,-0.08913899,-0.07749856,-0.04407835,-0.059425082,-0.12610547,-0.056349248
-0.025141811,0.0059268675,0.036688454,-0.037274428,0.0050884048,-0.058349386,-0.1270851,-0.04685637,-0.029103076,-0.057267405,-0.14737822,-0.05792008
-0.0209491,0.010912492,0.031108025,-0.04010623,0.010391308,-0.057839792,-0.10100512,-0.060096744,-0.033616804,-0.07001957,-0.17656031,-0.06708678
0.00076743943,0.010327807,0.03862485,-0.02722005,0.018564535,-0.072135374,-0.07144213,-0.023095762,-0.0057549737,-0.0360301,-0.14680651,-0.05328655
0.007444572,-0.00054413074,0.028110458,-0.01792933,0.0023648695,-0.05497234,-0.063963495,-0.053569872,-0.026403071,-0.025807193,-0.15440518,-0.06542966
0.008943081,-0.010100945,0.020164706,-0.012879255,-0.007435602,-0.059006225,-0.05087034,-0.037989326,0.024097038,-0.013940295,-0.110873,-0.051161166
-0.0015157152,-0.004927148,0.003151913,-0.024370642,-0.019789556,-0.053259,-0.035144452,-0.068968035,-0.016633317,-0.038127705,-0.15891366,-0.06518736
-0.0064946096,-0.0032960654,0.011014821,-0.030028611,-0.019831263,-0.08352773,-0.028635122,-0.047781773,-0.0027929174,-0.05014136,-0.15283208,-0.057804387
-0.0049684234,-0.010551449,0.014536548,-0.05074023,-0.04489995,-0.060499307,-0.045389112,-0.056097146,-0.020684123,-0.05582424,-0.20442379,-0.06815087
-0.008333967,-0.045116056,-0.009411147,-0.03480033,-0.04255453,-0.08680943,-0.08988494,-0.06979685,-0.07890735,-0.058192596,-0.22625075,-0.06661026
-0.010656758,0.016023248,0.010892437,-0.0017480535,-0.051597152,-0.07739037,-0.039681897,-0.0042190896,-0.05433716,-0.0073069227,-0.26343733,-0.060902055
-0.022231909,0.049321715,0.02728223,0.110058755,-0.12166437,-0.21755475,0.1460388,0.031406827,0.11687188,-0.021502964,-0.10613203,-0.059911
-0.018420907,-0.115905605,0.005336979,0.39182413,-0.07774286,-0.3567713,0.3961293,0.16084756,0.39289027,0.038684484,-0.032591715,-0.08071119
-0.01844081,-0.2083791,-0.34031433,0.2891251,-0.38611135,-0.55805904,0.32236433,0.41122192,0.4754533,0.43190974,0.414355,0.40409514
-0.0010148581,-0.36187947,-0.5917544,-0.16029704,-0.49351892,-0.84695196,-0.8359874,-0.2794457,-0.12111398,0.40208524,0.4009551,0.41944885
-0.0112724,-0.380172,-0.35303253,-0.29021955,-0.45280623,-0.8744037,-0.93249166,-0.7272495,-0.93412805,-0.122554205,-0.097057156,0.03791222
-0.018959843,-0.25584638,-0.16041516,-0.26396492,-0.31296945,-0.71494925,-0.48095658,-0.5533614,-0.23264185,-0.09857918,-0.29171613,-0.13046643
-0.021010347,-0.19659087,-0.10054234,-0.20507628,-0.21079999,-0.5473918,-0.3320388,-0.3511251,-0.16623059,-0.1404729,-0.29631737,-0.15821499
-0.022021487,-0.07620896,0.012421744,-0.12650901,-0.076436594,-0.27785206,-0.10083167,-0.19907029,-0.05620071,-0.1438284,-0.25211707,-0.16104887
-0.0024540375,-0.016955689,0.008282681,-0.15148278,-0.039029106,0.036899943,-0.03371382,-0.12759414,-0.057305485,-0.14813833,-0.27182984,-0.1314652
-0.005034166,0.008027262,0.065451264,-0.0782083,0.00899091,0.14866711,-0.0067042895,-0.044130076,-0.030620536,-0.13682643,-0.34148207,-0.14144555
0.0016897602,0.063106254,0.056800406,-0.077255465,0.041461796,0.17201388,0.03804456,-0.025901334,-0.07148394,-0.14878197,-0.37426513,-0.14482163
-0.0088859545,0.06826057,0.061872415,-0.035737578,0.080893874,0.2501658,0.08644028,0.02699631,-0.061461072,-0.121635295,-0.40920696,-0.14592674
-0.004820399,0.13639918,0.115155526,-0.020163277,0.10836244,0.3413366,0.12949051,0.04301497,-0.07672778,-0.09376256,-0.43028745,-0.1330565
-0.010440209,0.23212247,0.11605399,-0.009592388,0.11017054,0.39095193,0.2520131,0.080787346,-0.034251787,-0.06216359,-0.470708,-0.11637695
-0.013848462,0.26114824,0.1211938,-0.005713073,0.13177599,0.40114835,0.35077846,0.11541918,-0.01479336,-0.062068738,-0.4378836,-0.10290138
-0.014291565,0.3179901,0.12485199,-0.0051103383,0.12689981,0.42047945,0.39121762,0.14630899,0.03208561,-0.040496573,-0.46132073,-0.084976055
-0.020466063,0.3932711,0.15462719,-0.0075850524,0.10897071,0.4260867,0.39577472,0.12117406,0.06457955,-0.050327633,-0.40050694,-0.10977626
-0.011507182,0.3908158,0.18457244,-0.01235297,0.086036064,0.41781378,0.3442985,0.14149252,0.10988157,-0.04720684,-0.37480927,-0.14195995
-0.0121560665,0.39256757,0.16778614,-0.03385186,0.048876826,0.39241284,0.17792296,0.16331246,0.12591048,-0.08185174,-0.23178032,-0.13921314
0.004586575,0.25042188,0.13156691,-0.058386452,0.023090906,0.25717497,0.029935176,0.18579032,0.10081279,-0.067104615,-0.18495359,-0.0895821
-0.0020455988,0.12099552,0.123586595,-0.077717595,0.014286291,0.09042317,-0.02537004,0.16998234,0.03976884,-0.08142086,-0.080150686,-0.068642564
-0.021840854,0.01753234,0.08488388,-0.067978166,0.012263518,0.04386752,-0.06098828,0.1525502,0.02160621,-0.0460218,-0.09209681,-0.063304
-0.032161467,0.024482721,0.08293176,-0.076395385,-0.004758322,-0.022918383,-0.05875928,0.109794185,0.004822962,-0.038944386,-0.056216214,-0.06942088
-0.03256293,-0.01196813,0.0738823,-0.05171361,0.009626956,-0.012721418,-0.059730332,0.0999775,-0.011738327,-0.0074105994,-0.07763785,-0.0549475
-0.025673825,-0.0025385863,0.075399466,-0.0373341,0.03757233,-0.02204785,-0.08298418,0.08462295,0.0072979527,0.011207916,-0.06055513,-0.037797138
-0.024458,-0.031453066,0.09014114,-0.029737346,0.055069853,-0.018893795,-0.09350514,0.08484616,0.004763299,0.010952273,-0.07673243,-0.041090555
-0.014906852,0.014068182,0.07144687,-0.04701567,0.043490585,0.0064194812,-0.094087966,0.07330308,0.007563536,0.0023229378,-0.02266585,-0.027703317
0.0027083391,0.01974046,0.07677008,-0.05722077,0.044114757,0.030438317,-0.076384716,0.08325868,0.019397628,-7.137656e-05,-0.015395379,-0.023181815
0.008380127,0.07476073,0.08114713,-0.07905208,0.022331905,0.04827291,-0.08671013,0.068509385,-0.0007911621,0.0014137318,-0.00039848682,-0.022300242
0.01615774,0.08582979,0.11143457,-0.08207693,0.03016784,0.07546069,-0.05588401,0.05056155,-0.0053340583,-0.0044501727,0.025916763,-0.022862235
0.027379254,0.09255133,0.09626858,-0.07670413,0.027160132,0.070887,-0.08406822,0.069236256,-0.013246238,-0.04112971,0.064585425,-0.01441799
0.02312105,0.07727807,0.07122349,-0.078421645,0.041291945,0.057906743,-0.105914615,0.055254333,-0.011574467,-0.045970976,0.08185503,-0.011195937
0.0038565504,0.09141368,0.02345266,-0.08845238,0.044859324,0.054500345,-0.20028158,0.050706375,-0.037342314,-0.0937664,0.09544559,-0.0070169014
-0.0033330198,0.048799824,-0.00040420887,-0.09603484,0.055765025,0.025758676,-0.21736094,0.07301312,-0.0412483,-0.10412616,0.12171008,0.0035921182
0.0017846804,0.07079145,-0.013087181,-0.069356196,0.060669594,0.031343948,-0.21130246,0.060591593,-0.050052743,-0.09694462,0.1509531,-0.004649993
0.012129993,0.016094666,-0.03448311,-0.055109877,0.05854045,-0.008152334,-0.14973404,0.07392056,-0.024815679,-0.066371,0.14155315,-0.0031011302
0.00083678943,0.03248892,-0.055998124,-0.04282161,0.052336812,-0.017110256,-0.12799019,0.048704978,-0.028885463,-0.070702404,0.13010328,-0.010945509
0.011998257,-0.028995609,-0.021558668,-0.044081327,0.03926323,-0.029453339,-0.11388809,0.06181063,-0.013470073,-0.10522938,0.0776398,-0.015295147
0.008683881,-0.011255147,-0.015436227,-0.020824283,0.04477536,-0.004666086,-0.11956685,0.06060507,-0.0124738,-0.095842086,0.099994,-0.02333825
-0.0073962053,-0.04516397,-0.012823594,-0.04152546,0.036231656,-0.02794051,-0.08526029,0.07949486,-0.028583935,-0.113578215,0.07020234,-0.05032653
0.017261995,0.022356868,-0.0061949296,0.016454434,0.032259144,-0.012779196,-0.09326679,0.057507265,-0.04319122,-0.085091084,0.10037624,-0.08340847
0.051049195,0.06008582,-0.007754796,0.025306424,0.029335901,-0.051301166,-0.08816336,0.050500818,-0.05545506,-0.058657024,0.14689115,-0.07890658
0.073513806,0.18599726,0.009386025,0.057739664,0.00054290885,-0.005277555,-0.08265484,0.00036674735,-0.07715963,-0.09045574,0.12413397,-0.07245766
0.10083967,0.09296482,-0.07296921,-0.040465537,0.027748315,-0.0708373,-0.066337444,0.023427282,-0.043866508,-0.008565961,0.17762604,-0.01685144
0.26670453,-0.050728638,-0.21376972,0.011037259,0.25001398,-0.17524014,0.10070656,0.008878028,0.11922933,0.28317332,0.3940125,0.104217075
0.3908537,-0.39977235,-0.40970847,0.04077268,0.25300997,-0.37494084,0.17182669,0.11842366,0.36526522,0.44664216,0.4517473,0.2217643
0.39507657,-0.74920285,-0.7916378,0.39562967,0.3914155,-0.7507083,-0.40067852,0.11838663,0.009577131,0.4692217,0.5201123,0.39048958
-0.09805542,-0.9138149,-0.90774006,0.39152935,0.39668393,-0.9241354,-0.9180119,-0.43600455,-0.63116497,-0.32918194,0.46847084,0.18791702
-0.0050779143,-0.8336934,-0.8307477,0.39289495,0.396714,-0.8255336,-0.8733883,-0.675333,-0.6636485,-0.50652796,0.56109786,0.4006848
-0.124353945,-0.6655474,-0.77273077,0.14478005,0.39008635,-0.74395084,-0.4277904,-0.610218,-0.7157823,-0.26517794,0.49661323,0.29258594
-0.16638945,-0.31226137,-0.3690521,0.052842554,-0.010594746,-0.30885348,-0.14591181,-0.3374093,-0.40501225,-0.34491318,0.09952025,0.002460743
-0.038952332,0.030707091,-0.07486706,0.2032947,0.10285579,0.004670765,-0.060974445,-0.12530221,-0.17479265,-0.14382246,-0.055380426,-0.06249436
-0.08714752,0.18124963,0.17529355,0.069649994,-0.08012134,0.15198478,0.032373644,-0.10682827,-0.07126426,-0.060832456,0.031052379,-0.16231777
-0.106016755,0.19271456,0.21968502,0.044491224,-0.010969199,0.17499273,0.07734665,-0.063325964,-0.024875544,-0.015329531,0.021760723,-0.1500792
-0.11092952,0.27442566,0.33501178,-0.034531686,-0.09995546,0.30850726,0.139763,-0.08099181,-0.039804846,-0.04707892,-0.047128487,-0.16492869
-0.10884281,0.33376345,0.39027122,-0.04424126,-0.09288839,0.3905931,0.17127332,-0.031211875,-0.001889018,-0.015863935,-0.06320204,-0.1467708
-0.08425763,0.39328566,0.394546,-0.07410494,-0.12706305,0.3956521,0.24980924,-0.056165267,-0.0015946315,-0.011082941,-0.13640189,-0.14604014
-0.03473919,0.403639,0.42092282,-0.10742856,-0.13060974,0.4206823,0.27108482,-0.039394427,0.020250622,-0.000976741,-0.13317454,-0.15956855
0.009461419,0.4355662,0.4518766,-0.1846532,-0.17131625,0.45035958,0.39191002,-0.04253945,0.050785802,0.038042862,-0.1372339,-0.1478807
0.08889173,0.4534908,0.45864546,-0.2442408,-0.16800442,0.45934114,0.39359644,-0.0017663222,0.11070689,0.06607977,-0.14526941,-0.12878752
0.17248124,0.452988,0.45488212,-0.2995737,-0.19443558,0.45857543,0.28325123,0.011510758,0.1445752,0.17782387,-0.13934956,-0.09170988
0.20322165,0.41311187,0.4105804,-0.33693203,-0.12421756,0.42020673,0.15354493,0.070572704,0.19785838,0.22819431,-0.037198033,-0.042401593
0.16548464,0.32792464,0.39448214,-0.18552941,-0.058195505,0.3206822,0.09743818,0.08672149,0.18207419,0.2459403,0.02784742,0.0052940054
0.08895033,0.11093308,0.24400283,-0.13446815,-0.01783459,0.123524934,0.048525043,0.10894379,0.18825926,0.26354516,0.12778379,0.055157296
0.025710102,0.033635203,0.08856613,-0.088772304,-0.013081341,0.053746536,-0.003214378,0.082032286,0.1481951,0.24346253,0.15574667,0.06504314
-0.016839104,-0.021647438,-1.9818544e-05,-0.017162187,-0.013377315,0.0019416785,-0.010362165,0.05870457,0.10108802,0.20493242,0.16249152,0.05526898
-0.022743654,-0.020921873,0.008899603,-0.009510707,-0.0039829104,-0.0023179608,-0.007233553,0.022690246,0.06625502,0.16939415,0.132109,0.047345143
-0.040135033,-0.04763075,-0.01702615,0.0048652506,-0.018870885,-0.020575868,0.008764788,0.029022766,0.06024985,0.13776149,0.13764024,0.023544312
-0.026458971,-0.052273177,-0.050860085,0.006714809,-0.024096293,-0.021305973,0.02910364,-0.005161389,0.052113604,0.1137592,0.118774936,0.016202314
-0.0210127,-0.039590012,-0.05386971,-0.007074983,-0.039131675,-0.017313985,0.038691092,0.011981003,0.05972674,0.1085742,0.11716635,0.018937528
-0.015086311,-0.020411547,-0.06663347,0.002636665,-0.031262163,0.030329132,0.06444864,-0.00455421,0.045925535,0.10164396,0.108639784,0.021561142
-0.010445215,0.012411524,-0.08328185,-0.012366409,-0.03364035,0.06547566,0.0753648,0.013970777,0.06878168,0.13082826,0.11976998,0.053753402
0.00059050316,0.04053314,-0.062352043,-0.022420285,-0.035117365,0.07893836,0.08298385,-0.024734518,0.05242318,0.11988105,0.10482683,0.060713984
0.010468458,0.07346339,-0.058908783,-0.048733998,-0.03790317,0.07917499,0.07119078,-0.02602362,0.057843983,0.10801224,0.09261196,0.08345511
0.0074980045,0.0782662,-0.029975967,-0.029637238,-0.010887431,0.09257727,0.06850588,-0.059362184,0.0482782,0.08127967,0.06878011,0.06682107
0.005510334,0.045088306,-0.05949208,-0.057244178,-0.027037496,0.029393965,0.039347887,-0.03535174,0.072157614,0.08518919,0.066120304,0.07397791
-0.010415982,0.016561126,-0.06725479,-0.034892455,-0.015249441,-0.0011626477,0.032749113,-0.049747318,0.049287315,0.053043455,0.06534675,0.065630615
-0.008303422,-0.0006665884,-0.094852194,-0.027730953,-0.01593303,-0.03773396,0.02879083,-0.021597842,0.07360406,0.060614783,0.07392634,0.082697906
-0.009161335,-0.0080715455,-0.09236341,-0.010231615,-0.0105041275,-0.036098167,0.026908726,-0.054967586,-0.012267779,0.019329494,0.06562779,0.061119396
-0.0023551837,-0.01557695,-0.06782391,0.011534746,0.0044580703,-0.03729443,0.010808643,-0.022992551,0.020411279,0.03107965,0.07120952,0.06676045
-0.006558652,-0.021338949,-0.065137535,0.03552491,0.012253833,-0.021256434,0.017070811,-0.08059717,-0.010176367,-0.006167274,0.033984654,0.04314428
0.0012016887,-0.03240943,-0.0745303,0.031372946,-0.006406488,-0.025132548,0.043518696,-0.040561106,0.03885577,0.028771952,0.025583345,0.055900175
-0.023575824,-0.06256249,-0.029360436,0.017079122,-0.0060661584,-0.010829621,0.049577743,-0.054224182,-0.0024044467,-0.0067215445,-0.02892733,0.012634201
-0.022108648,-0.03113113,-0.0114030065,0.00085300184,-0.026182001,-0.031466376,0.08080825,-0.04853188,0.054248877,-0.031717118,-0.021450358,0.05458827
-0.005788947,0.010400427,0.045471612,-0.040907994,-0.040081833,-0.011581976,0.07246706,-0.07309997,0.027228985,-0.028709536,-0.041988287,0.03034536
-0.0020821064,0.08707837,0.07874798,-0.017068367,-0.025292603,-0.009914997,0.072259836,0.011723786,0.09814565,0.013746647,-0.0016673192,0.06745
-0.036115788,0.035814337,0.060177278,-0.006725299,0.005567493,-0.028624402,0.04211541,-0.009707802,0.0026892656,-0.021640647,-0.028021568,-0.08047764
0.002171066,0.0034251376,-0.092544295,0.012246772,0.08549602,-0.09799934,0.20452343,0.08204519,0.13850522,0.06887419,0.099985085,0.11202059
0.09767778,0.01008533,-0.26680738,0.010128539,0.13998412,-0.1571753,0.21436085,0.19029994,0.30268696,0.15713751,0.24878563,0.39178666
0.24974942,-0.1784436,-0.4952472,-0.38163847,0.26440433,-0.4111501,0.19519992,0.45622683,0.46653336,0.49346337,0.39775982,0.40754065
0.39552802,-0.49126372,-0.8748963,-0.36328113,0.39124158,-0.87245524,-0.2758633,0.3920975,0.2939431,0.2299053,0.41297022,0.4179681
0.3947447,-0.4476107,-0.919698,-0.5259129,0.39663935,-0.9437129,-0.7475625,-0.9384585,-0.89283514,-0.8784438,0.022641722,0.0014799525
0.39396164,-0.34397453,-0.8133515,-0.27123716,0.39594507,-0.82875013,-0.5530114,-0.68650985,-0.64078057,-0.56473887,-0.030016195,-0.14244665
0.40988186,-0.24285074,-0.660982,0.26034147,0.3927146,-0.59334517,-0.16842388,-0.46808782,-0.45762384,-0.52954876,-0.260268,-0.23485385
0.39661396,-0.03867743,-0.29137418,0.116380505,0.3255662,-0.33186477,0.11047374,-0.25918078,-0.29336444,-0.38459882,-0.33452645,-0.23807344
-0.06853376,0.012811615,0.108704135,-0.007896706,0.12054076,0.10484369,0.12089544,-0.14251299,-0.16887799,-0.27363917,-0.3095431,-0.24602088
-0.16542262,0.107357234,0.21511273,-0.088062875,0.063866235,0.18390451,0.2426835,-0.1130765,-0.07215948,-0.18330559,-0.32001147,-0.25598148
-0.20839763,0.21365528,0.1838306,-0.099580035,0.050050545,0.26940656,0.25848624,-0.11377855,-0.059078183,-0.18621425,-0.32558006,-0.26410192
-0.36447158,0.186409,0.2721924,-0.17855151,-0.025701018,0.31143457,0.28967,-0.11678228,-0.04274709,-0.14293912,-0.33876392,-0.24842449
-0.017322745,0.39009768,0.39622834,-0.16365755,-0.0058128177,0.3977656,0.3953046,-0.115042925,-0.05281019,-0.14322953,-0.38019127,-0.28106847
-0.42105246,0.4075936,0.41709206,-0.20349528,-0.14227648,0.42368105,0.41892833,-0.10377399,-0.02131923,-0.114638895,-0.40219983,-0.27202123
-0.4482073,0.41445306,0.44595852,-0.17102736,-0.33322284,0.41308945,0.41340685,-0.04428329,0.0076211407,-0.06354093,-0.40392128,-0.28169087
-0.5980246,0.43278638,0.4620533,-0.20868024,-0.4164598,0.39765626,0.3972072,-0.015180107,0.03174213,-0.011009039,-0.38593897,-0.2809219
-0.49140206,0.4441019,0.45860037,-0.19880708,-0.40656164,0.41668472,0.40012714,0.008173612,0.053473797,0.028687323,-0.34901714,-0.25695252
-0.5161699,0.4239398,0.44851953,-0.36328483,-0.26953423,0.41590035,0.3997906,0.09468951,0.14267506,0.12296703,-0.28164336,-0.21010685
-0.29467803,0.3937353,0.41282418,-0.28034654,-0.13468042,0.40888402,0.39071536,0.15165065,0.18599574,0.15005164,-0.23435971,-0.17414626
-0.014521472,0.38840935,0.25264046,-0.19956967,-0.06583919,0.26177984,0.3406657,0.15553479,0.20127176,0.17765462,-0.19443788,-0.14991549
-0.1640112,0.23535724,0.11809877,-0.11660137,-0.025249358,0.1420296,0.26685008,0.12553914,0.17254475,0.14771469,-0.15574475,-0.12792096
-0.02968214,0.18364061,0.09480154,-0.07783824,-0.017192012,0.08385809,0.16805711,0.10817194,0.15228164,0.14283933,-0.14476351,-0.10647188
-0.018307995,0.24973503,0.109860905,-0.045616806,-0.03309912,0.03487412,0.19412655,0.07605192,0.11808035,0.10099058,-0.12933154,-0.099802926
-0.042731296,0.14026557,0.12021014,-0.06882919,-0.03482087,0.10543866,0.20698528,0.11705245,0.13471697,0.13649294,-0.12333355,-0.0893936
-0.06504177,0.15633488,0.12352687,-0.056399424,-0.009359653,0.08793738,0.19265594,0.15313536,0.1310652,0.12651606,-0.11509662,-0.08537076
-0.101715095,0.1912786,0.19346094,-0.045026146,-0.006808116,0.09155207,0.16509308,0.11407912,0.12196375,0.12911017,-0.14150606,-0.102770574
