0,1,2,3,4,5,6,7,8,9,10,11
-0.09105762,0.06012154,0.20117424,-0.00096291746,-0.23326266,0.090847045,0.038206838,0.014630312,-0.014609934,0.11120884,-0.0011614873,0.064458035
-0.28049925,0.1766662,0.5576053,0.08167726,-0.6891467,0.34849477,-0.0076903882,-0.03814914,0.06055767,0.048037827,-0.036762394,0.10847612
-0.3577177,0.0055177077,0.3855344,0.15550658,-0.62781197,0.17235304,-0.015266718,-0.073392004,0.0759703,0.10344632,-0.10807805,0.07948634
-0.31045187,0.13522063,0.4594097,0.10304524,-0.66025937,0.2552768,-0.038023878,-0.10377444,0.059390523,0.05037801,-0.068095274,0.05442379
-0.31467798,0.002305347,0.27347818,0.1511322,-0.5427008,0.13352354,0.0002660933,-0.06206569,0.04245048,-0.00020556245,-0.15462144,-0.016517617
-0.27775502,0.068361394,0.37227985,0.11127439,-0.5358736,0.18443255,-0.029690187,-0.07082098,0.026678575,-0.0055423775,-0.072535895,-0.021428026
-0.26186317,0.014926935,0.22788103,0.12144189,-0.4585387,0.093478404,-0.025200786,-0.03776078,0.013106387,-0.029071499,-0.14184928,-0.027080026
-0.2461395,0.10078698,0.37106833,0.083180115,-0.52884173,0.18511733,-0.04148585,-0.056947187,-0.0062914593,-0.035302132,-0.07039046,-0.003399495
-0.17139918,0.09429195,0.28176495,0.050818488,-0.46878922,0.10666199,-0.019242868,-0.015855916,0.022493469,-0.03681503,-0.10746403,0.009697128
-0.19112596,0.24098295,0.4853211,-0.004264622,-0.59215605,0.2466317,-0.040060516,-0.06578599,0.04133778,-0.035071626,-0.04568842,0.033704996
-0.22189763,0.17999929,0.45039853,0.008837228,-0.5985121,0.21627353,-0.063222185,-0.09596683,0.024984324,-0.008636752,-0.095140584,0.027812954
-0.17837602,0.15216994,0.33846992,0.008597429,-0.50903916,0.18263786,-0.10083738,-0.15237097,-0.013695094,-0.044481214,-0.09182478,0.01716967
-0.19936132,0.010225493,0.19203894,0.09818484,-0.38076586,0.063616954,-0.040482014,-0.05478111,-0.02559393,-0.13081183,-0.19568995,-0.021015976
-0.20948777,0.11572671,0.28352153,0.05341839,-0.34649813,0.17262916,-0.07869039,-0.08787831,-0.01150761,-0.036014345,-0.04974331,-0.059618723
-0.21527618,-0.052036956,0.051911958,0.1732451,-0.29029995,-0.019547917,0.037276715,-0.04751651,-0.106033094,-0.13443957,-0.102296166,-0.056886934
-0.14706892,0.12218822,0.3559339,0.01226279,-0.35517758,0.2584511,-0.030964658,0.10666668,0.11384057,0.10264743,0.036116272,0.03904964
-0.16908717,-0.08496549,0.08054044,0.219948,-0.2203988,-0.014013938,0.43488416,0.36540005,0.16197367,-0.052448712,-0.22347398,-0.10845521
0.3366473,0.7714109,0.8505094,-0.60463405,-0.6718392,0.81807023,0.4169858,0.71916854,0.9529477,0.9317766,0.7076098,0.74688494
-0.27942887,0.68774426,0.9039077,-0.22213146,-0.98204994,0.776059,-0.3785967,-0.38350135,0.54757553,0.78273654,0.6302503,0.7736154
-0.3955554,-0.266494,-0.24696843,0.40240955,-0.35631323,-0.22933894,0.36530426,0.16631804,-0.058176287,-0.11142063,-0.30116588,-0.13545537
-0.20453113,0.020851696,0.3162224,0.14415652,-0.44895548,0.15833478,0.1425713,0.26216066,0.23447572,0.09286414,0.00043197162,0.060810104
-0.27433285,-0.09911094,0.17379422,0.2349469,-0.34569818,-0.044591248,0.3040618,0.2432563,0.12557209,0.01877819,-0.11324376,-0.03869737
-0.23611185,0.042620003,0.32443374,0.08285185,-0.36293375,0.16144288,0.12220753,0.09218431,0.14304055,0.07903732,-0.060090266,0.067639604
-0.16049033,0.03641763,0.19025835,0.07196454,-0.25881743,0.09510029,0.1769222,0.060818143,0.012926232,0.013200209,-0.04157711,-0.026847456
-0.067952186,0.037608817,0.13708918,-0.01118309,-0.11818634,0.073414,0.1504945,0.10443201,0.07619196,0.08182144,0.030847976,0.043399792
-0.040695928,0.009604625,0.15214328,0.009432348,-0.15032372,0.036698148,0.1332979,0.111070275,0.05468157,0.060836665,0.02792001,0.011196858
-0.0008407503,0.04883861,0.13648637,-0.042455398,-0.081860095,0.07466239,0.16455692,0.19095588,0.12587613,0.1061827,0.09777221,0.092777036
0.026898827,0.0959142,0.19218813,-0.0760339,-0.13579457,0.09371816,0.17066786,0.1942692,0.17995518,0.10256836,0.10308891,0.13190229
0.10472241,0.31796342,0.32818213,-0.26374656,-0.1898423,0.29944193,0.2221639,0.31975454,0.3529239,0.23642854,0.23213036,0.2630471
0.152138,0.3424613,0.37546122,-0.29945552,-0.24830191,0.3261151,0.21502313,0.39517707,0.43593588,0.29257926,0.26396963,0.33000162
0.21822062,0.41784593,0.44266534,-0.38508585,-0.25447398,0.41126326,0.13824542,0.32976946,0.47197056,0.36095676,0.2874029,0.42641217
0.059676424,0.20994812,0.37944725,-0.1763457,-0.25566965,0.2570993,0.11766798,0.2589706,0.37596262,0.28168994,0.16555408,0.26587027
-0.027923347,0.07639553,0.2360981,-0.031644147,-0.20818149,0.11763018,0.11285251,0.15630804,0.18716486,0.15548705,0.08589993,0.14689079
-0.077624485,-0.016396765,0.10635749,0.059252784,-0.16608249,0.018070815,0.12336552,0.07718538,0.05574379,0.00517865,-0.036654107,0.022774827
-0.14485553,-0.023905395,0.1248534,0.08726631,-0.17954786,0.020834556,0.10012943,-0.02913042,-0.032035828,-0.030717276,-0.04055983,-0.02912964
-0.15935096,-0.04052588,0.06259862,0.105572656,-0.17127424,-0.021849658,0.09877506,-0.06051086,-0.08635338,-0.08018778,-0.06816098,-0.063343994
-0.13412806,-0.026685627,0.07521199,0.07632726,-0.14492683,0.005852014,0.084994376,-0.046490088,-0.062196463,-0.047354124,-0.064254224,-0.048997592
-0.101176694,-0.022619499,0.06303784,0.066381365,-0.13341579,0.0062253997,0.06199958,-0.03241528,-0.083285265,-0.027686663,-0.058145076,-0.05515872
-0.07016094,-0.004255507,0.06363507,0.044619977,-0.113242224,0.029243601,0.036687847,-0.017325815,-0.06217999,-0.005032431,-0.026419993,-0.010369869
-0.112529784,-0.024737187,0.09748393,0.09012254,-0.1904433,0.014126793,0.05476065,-0.07074439,-0.123993725,-0.07662363,-0.07739154,-0.072209015
-0.0988491,-0.007967871,0.07865087,0.061349493,-0.14112233,0.030837016,0.053750828,-0.064212374,-0.100165114,-0.056460045,-0.048547417,-0.06935563
-0.09043526,0.0048057395,0.05899609,0.054194905,-0.14046048,0.0090882,0.04410759,-0.08546477,-0.13163708,-0.10890105,-0.09323938,-0.13339345
-0.05087013,0.008324685,0.04180584,0.021447195,-0.085892946,0.024682535,0.016757697,-0.06989048,-0.099019416,-0.07213136,-0.05741425,-0.10903745
-0.07155146,-0.03217739,0.0019890582,0.05699561,-0.05607511,-0.024310227,0.010034572,-0.06262645,-0.10362215,-0.075964965,-0.077665776,-0.13778819
-0.048450224,-0.027895166,0.020788211,0.042459372,-0.058137096,-0.0031541167,0.012271743,-0.039703257,-0.09789129,-0.05378674,-0.04687138,-0.08031005
-0.08537617,-0.050853863,0.012887315,0.077466846,-0.0776261,-0.031390525,0.013681306,-0.026136547,-0.09383197,-0.06808272,-0.056630597,-0.07367595
-0.10213593,-0.043834187,0.05455949,0.083972305,-0.10781084,-0.0035749516,0.029543268,-0.045344375,-0.10124328,-0.06268013,-0.045204043,-0.06410426
-0.08623961,-0.039095007,0.0071199755,0.07464822,-0.071536504,-0.03175985,0.028934203,-0.044122085,-0.11168607,-0.081626356,-0.05734002,-0.07697495
-0.08196329,-0.036703683,0.032435372,0.06755059,-0.09216755,-0.014296239,0.026846034,-0.0767033,-0.111743204,-0.07515645,-0.047877595,-0.07746542
-0.08083753,-0.04861594,-0.017616697,0.08065576,-0.05803812,-0.05307249,0.0043056724,-0.08720714,-0.12903677,-0.09330272,-0.079552226,-0.09502803
-0.050628055,-0.046524882,0.032230098,0.04943023,-0.05970852,-0.0082192905,-0.008115821,-0.0831681,-0.09448249,-0.047107194,-0.043069676,-0.048699394
-0.08425404,-0.039020617,0.05277083,0.07616486,-0.09745567,0.014616137,0.0011395067,-0.09585353,-0.10391986,-0.06164004,-0.06380691,-0.07456139
-0.05774198,0.0050697983,0.12333577,0.018846393,-0.12583031,0.08766308,0.0044970107,-0.0787493,-0.082084306,-0.042922333,-0.044190772,-0.044034902
-0.016719688,0.050515942,0.06967079,-0.011165884,-0.0660258,0.07628593,-0.023545144,-0.06557542,-0.066176966,-0.06942053,-0.066950165,-0.081340745
0.021877952,0.01121233,0.0043187607,-0.023126157,0.019104062,0.012590041,-0.048922632,-0.09189536,-0.06826417,-0.055642433,-0.04229193,-0.05198763
0.008969193,-0.07490233,-0.14665912,0.039938524,0.120332696,-0.10978892,-0.055922877,-0.029831788,-0.061185062,-0.06839805,-0.07128389,-0.086867735
-0.05638752,-0.08465385,-0.0902333,0.085578725,0.041774772,-0.098840885,0.011048526,-0.06606509,-0.09725384,-0.068900906,-0.0575442,-0.05483563
-0.12703544,-0.11115924,-0.12994559,0.1473063,0.044529036,-0.17650147,0.069600075,-0.0009764759,-0.025960824,-0.06873427,-0.025963325,-0.01682202
-0.04897466,-0.044964835,-0.10778004,0.08391218,-0.025573805,-0.13206853,0.04084907,-0.15390708,-0.2039565,-0.0916617,-0.03391929,-0.012964951
0.18516412,-0.024290808,-0.27996284,-0.04420995,0.11035221,-0.14652124,0.2505363,0.23416422,0.021350259,-0.021176152,-0.029533444,0.054391053
0.6893329,0.9403949,0.84493804,-0.83811474,-0.20705713,0.9017375,-0.42600298,-0.070128046,0.8077972,0.947875,0.85982484,0.93613034
-0.0981929,0.0016733827,0.16633311,0.023376204,-0.28962326,-0.016928142,-0.3546434,-0.50831544,-0.3241152,0.08163158,0.084211506,0.19837153
-0.03034639,-0.20633195,-0.34413347,0.1366171,0.1529503,-0.2552743,0.1464558,0.088046975,-0.05606232,-0.11697533,-0.08048929,-0.07566188
-0.06134238,-0.06512907,-0.04171052,0.08545903,0.0062917303,-0.04474988,0.11686641,-0.018722195,-0.04272221,-0.04264777,-0.017078565,-0.05074986
0.0013693101,-0.07663877,-0.0947767,0.04782732,0.091501504,-0.11688759,0.11742882,0.052441016,-0.0057101427,-0.020664537,-0.030405214,-0.037505522
-0.011373599,-0.03252948,-0.042734027,0.025156597,0.045611303,-0.03023599,0.030133527,0.014431012,0.0048395908,-0.03848573,-0.04685945,-0.08828504
-0.01215727,-0.06909388,-0.08079383,0.021460932,0.0891702,-0.059206903,0.01412656,0.020979697,-0.014660244,-0.032017957,-0.03600438,-0.08931513
0.0050129076,-0.039186437,-0.028825013,0.0020405771,0.039213,-0.0036562257,0.0050559677,0.0311879,-0.0069929757,0.0037482493,-0.0042219325,-0.042615306
0.0372166,-0.04322439,-0.036069192,-0.004098268,0.049069587,-0.016858295,0.037335947,0.089326054,0.035683975,0.022437187,0.0052233003,-0.04630143
0.10872206,0.030862508,-0.027436387,-0.06405369,0.08153603,0.0038766637,0.018973134,0.114393264,0.10474389,0.08060112,0.06361663,0.031122707
0.23730838,0.09754929,-0.039788343,-0.19193399,0.1966213,0.038046427,0.04694704,0.21030222,0.2477509,0.14557877,0.09972746,0.020381287
0.31297883,0.13431047,-0.0002834173,-0.26821995,0.22497919,0.09004897,-0.03524064,0.25082868,0.29151502,0.23471007,0.1840005,0.07080577
0.42292386,0.22797415,0.050185807,-0.37703514,0.29213327,0.16062023,-0.050417252,0.31432065,0.372645,0.29317462,0.28398332,0.15504996
0.38499254,0.2227738,0.08097486,-0.30342084,0.2634396,0.15131511,-0.0410124,0.2169496,0.27318773,0.24884975,0.26209822,0.16224924
0.19158798,0.100119606,0.044816256,-0.12701762,0.13792971,0.053400293,-0.004054639,0.123092264,0.09849428,0.09451435,0.13260803,0.06126964
0.07401519,-0.015082112,-0.076977916,-0.019492885,0.11798309,-0.055701703,-0.019414352,0.058015823,0.010087928,0.0050679566,-0.010354622,-0.06161815
0.011692695,-0.08941246,-0.09860746,0.012904739,0.12944135,-0.07988125,-0.012928287,-0.020294324,-0.02149334,-0.03343317,-0.063029595,-0.14575176
-0.026722642,-0.13032839,-0.14306553,0.06080013,0.1250706,-0.11733728,-0.00107437,-0.04752525,-0.06303652,-0.03546921,-0.08424429,-0.12378569
-0.04314999,-0.12993102,-0.1335505,0.08510974,0.10139732,-0.1195399,0.0040705535,-0.0571713,-0.063451745,-0.04098673,-0.08141522,-0.10300855
-0.04254232,-0.12285959,-0.12106244,0.09001239,0.08877777,-0.12216556,0.004595395,-0.058500417,-0.06922499,-0.05138775,-0.07153166,-0.084691465
-0.05814619,-0.120275855,-0.08131407,0.09609984,0.060294747,-0.10751391,0.0072800876,-0.07273152,-0.07800335,-0.07246855,-0.0889053,-0.08532704
-0.06473968,-0.11636433,-0.102887474,0.09291303,0.06839698,-0.10945771,0.002028942,-0.080352046,-0.08999405,-0.09083903,-0.10569686,-0.10397154
-0.047795482,-0.12419746,-0.09872259,0.08076207,0.083105974,-0.1005766,-0.015439939,-0.09295027,-0.09823198,-0.07606345,-0.09976887,-0.10406572
-0.05602373,-0.1433379,-0.14036572,0.09874292,0.10246131,-0.1315721,-0.030236542,-0.11695887,-0.08567797,-0.07766832,-0.11262942,-0.11727381
-0.08932234,-0.1732179,-0.14594913,0.12928876,0.07808002,-0.14574935,-0.030711144,-0.14354467,-0.08805781,-0.05856315,-0.10198738,-0.0945238
-0.13410375,-0.19926377,-0.17681095,0.17207357,0.0675151,-0.16293485,-0.022218887,-0.1520444,-0.09172253,-0.07886673,-0.14058562,-0.1262192
-0.13864136,-0.2136985,-0.18292809,0.16772297,0.07112748,-0.17026155,-0.022375807,-0.15752162,-0.08713428,-0.051427618,-0.1165529,-0.10749067
-0.1738984,-0.23733178,-0.19560239,0.2041241,0.06620443,-0.17222947,-0.0166665,-0.16455002,-0.11202782,-0.05848327,-0.12843335,-0.12532715
-0.13623846,-0.22476159,-0.23218289,0.16315979,0.1057466,-0.19424826,-0.02080219,-0.11685705,-0.07240208,-0.0056946254,-0.08627367,-0.08660308
-0.13690859,-0.2283472,-0.23358874,0.1873985,0.10296761,-0.20839676,-0.017071182,-0.12823993,-0.09259589,-0.041022293,-0.10695089,-0.10746509
-0.11320068,-0.18788208,-0.23770982,0.14645904,0.11269478,-0.17867552,-0.013590001,-0.124320306,-0.105363734,-0.048343047,-0.09265324,-0.060709726
-0.13297233,-0.22377257,-0.26481265,0.18194482,0.1228547,-0.21027029,-0.026115116,-0.1485904,-0.09119456,-0.059562072,-0.13058732,-0.10301701
-0.1380718,-0.20748675,-0.23600526,0.1831258,0.103500344,-0.20505674,-0.021513298,-0.16201617,-0.10987163,-0.06442424,-0.12856528,-0.09675828
-0.115624,-0.18615863,-0.23624758,0.1643638,0.10040395,-0.19993457,-0.031119429,-0.14707467,-0.102527425,-0.058894504,-0.11881728,-0.07934897
-0.031527326,-0.12846476,-0.16997318,0.10056203,0.104417734,-0.13719912,-0.05308054,-0.15299755,-0.0806387,-0.056610495,-0.07933981,-0.039970595
-0.009078977,-0.1226568,-0.195426,0.0815207,0.16359723,-0.14338824,-0.0720311,-0.11344889,-0.08375452,-0.076410815,-0.08301635,-0.06406692
0.033565003,-0.12026493,-0.20418696,0.04654001,0.20469284,-0.13503207,-0.097220436,-0.15745613,-0.034666754,-0.06575207,-0.05696226,-0.06731107
-0.12478026,-0.25542128,-0.3500465,0.1970599,0.23810308,-0.29120943,-0.086264424,-0.17050077,-0.1168465,-0.12716673,-0.17736864,-0.1796273
-0.08641829,-0.19301832,-0.32494923,0.14718592,0.20448132,-0.22948143,-0.08299597,-0.17488703,-0.08190997,-0.08327689,-0.13386519,-0.10563678
-0.21082714,-0.3714169,-0.4529152,0.31613848,0.2561112,-0.42512345,-0.037627738,-0.09284403,-0.050273627,-0.17207247,-0.23300731,-0.23687582
-0.054319948,-0.10368867,-0.21272236,0.11644901,0.11244129,-0.18088092,0.0001973845,-0.04423841,-0.024872273,-0.080376014,-0.1463892,-0.04722567
-0.13167676,-0.33338845,-0.27738884,0.26252484,0.12398571,-0.38008687,0.1337024,0.05372954,-0.090665884,-0.184719,-0.24253549,-0.2666611
0.5691965,0.36349392,-0.104950294,-0.5101391,0.48451108,0.21679679,0.068312235,0.5188412,0.6951171,0.59149337,0.43971318,0.38864255
0.6943818,0.8159732,0.5137273,-0.7956293,0.27081412,0.78676045,-0.81889766,-0.7326249,-0.17306365,0.3956663,0.5778086,0.7546084
-0.08059592,-0.22034472,-0.29385027,0.11945216,0.030954339,-0.30851284,-0.044730674,-0.33556685,-0.5550519,-0.49654442,-0.3572948,-0.1994434
0.011644659,-0.033269685,-0.06601935,0.051578663,0.013297553,-0.098925434,0.043206476,0.07763091,-0.026124261,-0.11945732,-0.036985077,-0.018630698
-0.08979882,-0.17118265,-0.14914426,0.15451562,0.11006951,-0.19020714,0.03908304,0.025201932,-0.07180968,-0.16503109,-0.12374443,-0.14525343
-0.035984356,-0.15070724,-0.13795462,0.07453466,0.12540926,-0.12007394,0.004250813,-0.008197771,-0.031211797,-0.039146893,-0.06186287,-0.06287133
-0.04394293,-0.2122265,-0.28915188,0.14655405,0.23413199,-0.26235363,-0.0054799966,0.02298327,-0.018694114,-0.07460343,-0.09713004,-0.12704779
0.008688841,-0.14702007,-0.30604056,0.08346703,0.25022233,-0.24400553,0.0302589,0.033902027,0.01340434,-0.054011136,-0.07270015,-0.08228385
-0.00024218578,-0.18244709,-0.3369458,0.12761068,0.27137464,-0.31075332,0.022528877,0.051250465,0.026295798,-0.0366289,-0.05903267,-0.078966334
0.057202242,-0.087063596,-0.22874136,0.043165457,0.20395233,-0.21802217,0.052571885,0.105370305,0.07315978,-0.02471148,0.029599968,0.030243918
0.1449281,0.0150517,-0.17567433,-0.034150798,0.21412481,-0.097497694,0.04242154,0.09490558,0.123756014,-0.0028587705,0.12638384,0.14146534
0.18282428,0.090942144,-0.10147057,-0.108504035,0.19737239,-0.02662107,0.04314015,0.1305961,0.14461766,0.067008995,0.21804655,0.20462874
0.2981797,0.17033179,-0.06539302,-0.2321313,0.25325012,0.030827632,-0.015441449,0.07175306,0.14216219,0.09068542,0.2613719,0.24197368
0.38174784,0.25414854,-0.054729767,-0.33540264,0.29564273,0.071285784,-0.09333982,0.03441567,0.07984586,0.15189987,0.33453852,0.3147169
0.3346662,0.22920722,-0.08484462,-0.27183354,0.2563582,0.039613403,-0.053364985,0.10582193,0.050450467,0.115803495,0.26518282,0.26516664
0.12658177,-0.012561214,-0.1528483,-0.06140648,0.17449251,-0.13689503,0.0359596,0.08464487,0.017494047,0.010854408,0.06457287,0.14785859
-0.046229973,-0.14269497,-0.2254172,0.10957409,0.13703668,-0.24211903,0.027283119,0.02727566,-0.05854942,-0.07588108,-0.07852938,-0.012280059
-0.06566027,-0.16286954,-0.20991802,0.10868181,0.12345871,-0.19182621,-0.006442768,-0.035963483,-0.087707534,-0.08076896,-0.092413604,-0.041762564
-0.05317839,-0.17568916,-0.22561511,0.11333414,0.16119021,-0.2085491,-0.016214576,-0.032635696,-0.0857162,-0.0659663,-0.10725584,-0.05910368
-0.049470488,-0.16873007,-0.18166968,0.10695125,0.11119749,-0.1829145,-0.054337893,-0.05460187,-0.051461764,-0.033977468,-0.08534457,-0.06593873
-0.011476256,-0.17813566,-0.2240805,0.0993545,0.18444885,-0.21081613,-0.1017691,0.0017927431,-0.020668644,-0.04913454,-0.087916344,-0.09075166
0.002516664,-0.15206413,-0.19828671,0.06898071,0.1794389,-0.16004609,-0.089334294,-0.061918065,-0.022764567,-0.037518248,-0.060864717,-0.07566562
-0.100886375,-0.24610868,-0.33464026,0.17219037,0.23075533,-0.28912923,-0.047790177,-0.004442244,-0.020554082,-0.034465805,-0.10433498,-0.15480708
-0.13407731,-0.23456289,-0.3615782,0.188672,0.21530598,-0.27508682,-0.012583187,-0.04500723,-0.05404622,-0.049736273,-0.13177493,-0.1471635
-0.15299168,-0.23212714,-0.37692615,0.21396214,0.21370019,-0.28126538,0.0081703495,-0.06930436,-0.08864855,-0.04952333,-0.10592597,-0.119412035
-0.07972161,-0.27233914,-0.49092925,0.21698561,0.31479543,-0.36517903,0.004725405,-0.0713861,-0.059926085,-0.07245368,-0.119274266,-0.11836201
-0.07704125,-0.26245263,-0.40957016,0.20734063,0.2719829,-0.31268525,-0.06362672,-0.11630112,-0.042673662,-0.065309845,-0.104642324,-0.07353674
-0.11232722,-0.29431242,-0.43893015,0.23741305,0.26161534,-0.34418517,-0.1135355,-0.111989796,-0.018557684,-0.047140334,-0.11294528,-0.11931699
-0.12589946,-0.2737154,-0.36839205,0.22745341,0.21693267,-0.30205742,-0.107246764,-0.09468449,-0.0035087396,-0.053020887,-0.13513939,-0.14070874
-0.14315459,-0.25349087,-0.24082254,0.21043548,0.08669021,-0.19503121,-0.041515537,-0.104025364,-0.028047085,-0.0151281785,-0.10196687,-0.10807964
-0.17898184,-0.29713342,-0.21084416,0.24428082,0.068581395,-0.22192179,0.011578713,-0.084053,-0.021369735,-0.0020421878,-0.10671965,-0.1346368
-0.17923218,-0.27445006,-0.18575388,0.23434147,0.0212376,-0.1852624,0.024513766,-0.08452932,-0.042580575,-0.038231447,-0.115867525,-0.11408008
-0.18286976,-0.25388777,-0.15242918,0.23607025,0.012440108,-0.18237492,0.018813904,-0.078329846,-0.03816708,-0.035875376,-0.12012697,-0.10158524
-0.14505282,-0.23631823,-0.12868953,0.19708136,0.00053475355,-0.1652641,0.0062550968,-0.08709915,-0.037882537,-0.034358792,-0.09809542,-0.092069685
-0.12735215,-0.2027316,-0.13777132,0.18695801,0.021752328,-0.16603899,-0.0079232305,-0.08282442,-0.05395726,-0.05659414,-0.110418275,-0.07772355
-0.07228111,-0.13903016,-0.11253736,0.12202892,0.029055005,-0.1251569,-0.0077432753,-0.056858584,-0.061797127,-0.042057175,-0.07467733,-0.034351245
-0.053004466,-0.13291278,-0.13631319,0.10681515,0.073154345,-0.13636278,-0.051517263,-0.028959746,-0.05229561,-0.0734191,-0.082461864,-0.03348983
0.00012596278,-0.14214198,-0.1331282,0.06905569,0.09837027,-0.12500662,-0.07952961,-0.041530207,-0.047539666,-0.062217623,-0.027900724,-0.009615374
-0.09778165,-0.22304519,-0.2212787,0.15186417,0.13843188,-0.27235496,-0.07046758,0.009653551,-0.059419543,-0.08099284,-0.0933982,-0.016601183
-0.07237918,-0.221711,-0.2033417,0.13560662,0.12639986,-0.22804129,-0.059997566,-0.014632665,-0.07666591,-0.07203989,-0.08087899,-0.029954642
-0.09748855,-0.2640288,-0.2224236,0.20150596,0.13963379,-0.2975088,-0.05979711,0.09639039,0.03781697,-0.08286135,-0.10382316,-0.059546985
-0.080764174,-0.14400937,-0.061956927,0.14666924,0.068421535,-0.15647015,-0.024471775,0.07876988,0.07166855,-0.008961119,-0.057945125,-0.018200599
-0.07781039,-0.2672971,-0.17730443,0.17462236,0.07795432,-0.23086058,0.16272667,0.16243877,0.001302368,-0.076104954,-0.13550124,-0.173779
0.6932855,0.5545522,-0.063590646,-0.6613127,0.5293045,0.31603828,-0.1091883,0.38173518,0.6895502,0.66225713,0.6158192,0.63209134
0.4045458,0.54226357,0.37365228,-0.4749242,0.10378553,0.5099205,-0.6738175,-0.39052975,0.33877286,0.5462562,0.57889766,0.6999374
-0.29649207,-0.3273208,-0.18625978,0.31378183,-0.11971984,-0.25404087,-0.012452412,-0.17380963,-0.32751518,-0.3077713,-0.28652412,-0.23485938
-0.022083871,-0.12869768,-0.076629266,0.07295693,0.039471358,-0.102394246,-0.03252581,0.010256477,-0.059976555,-0.08944302,-0.021693312,-0.025790542
-0.094533816,-0.1821003,-0.05897247,0.15324333,0.0006840129,-0.1149736,0.030783556,-0.02616424,-0.05386015,-0.07682744,-0.0692154,-0.07676251
-0.038724326,-0.10158055,-0.07316855,0.069175996,0.023864899,-0.08845334,0.043088194,0.06122037,0.016667366,-0.010804851,0.014742539,0.033154637
-0.04760362,-0.11776949,-0.0935058,0.096570954,0.03910991,-0.10395157,0.023662407,0.0699932,0.010617085,-0.052540947,-0.028251009,-0.025533188
0.012009377,-0.13159858,-0.109241635,0.059920724,0.11312519,-0.11561871,0.0012045365,0.09867766,-0.0058953185,-0.020602874,-0.029639224,-0.013501688
-0.00010450813,-0.13654429,-0.11446015,0.06876493,0.10271507,-0.12429458,-0.0061143576,0.112438224,0.00442087,-0.02271963,-0.050805725,-0.03130881
0.038267523,-0.1045135,-0.10876434,0.055379093,0.11993769,-0.13025668,0.0008370839,0.1572983,0.03316938,-0.008526273,-0.026088879,0.008376951
0.097645395,-0.03675024,-0.079964705,-0.017215908,0.15675816,-0.0601241,0.020507263,0.22970057,0.13360102,0.050535403,0.028268298,0.008001783
0.23284033,0.055706777,-0.07701482,-0.13803211,0.23657323,0.0030983426,0.059565682,0.2971268,0.22577296,0.1482757,0.12147278,0.03768033
0.33953038,0.112788,-0.066824906,-0.23387355,0.30090708,0.02202279,0.06633234,0.4083108,0.297509,0.19551197,0.21265662,0.110437214
0.39952043,0.20914416,-0.053265944,-0.30106694,0.33607328,0.07834053,0.029074121,0.34132975,0.2761232,0.19177064,0.27018023,0.18139417
0.2908634,0.14152363,-0.025232974,-0.21461746,0.25447422,0.021940192,0.04513781,0.20563136,0.08069316,0.039320372,0.15268058,0.16738445
0.12040084,0.054147758,-0.015920477,-0.0796843,0.12258012,-0.025136795,0.022780305,0.09427083,-0.00054630265,-0.010778597,0.048303373,0.07434673
0.04698442,-0.018525423,-0.0348334,-0.03777502,0.08672697,-0.07000784,0.04122845,0.049201168,0.0041625993,-0.015479455,0.016698025,0.014401135
-0.013884755,-0.06283126,-0.043543883,0.015955113,0.035870716,-0.0722592,0.04211318,-0.00555443,-0.03561782,-0.032947708,-0.026042543,-0.024025064
-0.03965369,-0.075191796,-0.08548354,0.05471061,0.035734307,-0.08864527,0.0252603,-0.039733298,-0.041038983,-0.06374814,-0.06012658,-0.025462307
-0.065995716,-0.11364798,-0.08657337,0.08971778,0.039987806,-0.10809395,0.00045346096,-0.07006925,-0.06365382,-0.058815744,-0.061976954,-0.008771611
-0.05616279,-0.120354705,-0.12826984,0.10017005,0.06167559,-0.12915659,-0.017873853,-0.07571106,-0.04551766,-0.062325127,-0.052922457,0.00681483
-0.044437137,-0.12401814,-0.12567984,0.083127744,0.07687796,-0.13332158,-0.024984913,-0.06796172,-0.032361507,-0.049534798,-0.03037444,0.05198537
-0.07296072,-0.14198975,-0.12151375,0.11689842,0.059230346,-0.14501333,-0.024476469,-0.08158091,-0.057501905,-0.05997332,-0.057501033,0.02598992
-0.038096294,-0.11738912,-0.13632013,0.0800741,0.08907243,-0.13768451,-0.044190045,-0.10673994,-0.043547794,-0.05803465,-0.042539142,0.054407768
-0.06512621,-0.14410122,-0.13370037,0.11826126,0.06645725,-0.15150285,-0.055785235,-0.12767065,-0.06828411,-0.0688433,-0.07557868,0.019436046
-0.052622758,-0.13085212,-0.12965749,0.10397175,0.07229198,-0.14138387,-0.07798079,-0.14799084,-0.055880785,-0.064236775,-0.059415877,0.044390798
-0.07866276,-0.15567932,-0.12803677,0.13959372,0.05875381,-0.15403223,-0.086208925,-0.15515728,-0.073727705,-0.07169693,-0.07570857,0.020348638
-0.04816493,-0.13196258,-0.12477498,0.09943426,0.06744221,-0.13574928,-0.091215186,-0.15795885,-0.063870355,-0.070613824,-0.059588432,0.03617459
-0.09247408,-0.15650953,-0.11972664,0.14150414,0.039854426,-0.15584272,-0.07147983,-0.14401042,-0.07366112,-0.0764814,-0.08403924,1.0271557e-05
-0.05475202,-0.1223501,-0.1182228,0.10207899,0.0514539,-0.1311965,-0.0876366,-0.14753489,-0.053235218,-0.07423257,-0.044158615,0.0573432
-0.11113561,-0.15301147,-0.078854285,0.1427421,0.00039050542,-0.13348477,-0.05160095,-0.11496092,-0.060000814,-0.06347964,-0.06929141,0.018943354
-0.06961199,-0.09214439,-0.038812824,0.08628785,0.0015811377,-0.068555236,-0.02862715,-0.09509022,-0.051060088,-0.05829668,-0.056746103,0.027515326
-0.081400715,-0.0824409,-0.03898555,0.083506845,-0.011965485,-0.057030417,-0.01882953,-0.08690148,-0.05616393,-0.047765303,-0.07323323,-0.008039786
-0.03145156,-0.057365775,-0.05490686,0.040164568,0.027058227,-0.053819433,-0.02919307,-0.094992615,-0.04135602,-0.06637274,-0.057811476,0.01311767
-0.055376403,-0.07886188,-0.064175576,0.074352406,0.013913408,-0.0821861,-0.031266045,-0.09634744,-0.05507365,-0.06650237,-0.06766621,0.016619142
-0.04976655,-0.08740611,-0.07826721,0.06507315,0.029963305,-0.09047283,-0.04998377,-0.097615466,-0.059862636,-0.08698584,-0.06220387,0.034879334
-0.04067128,-0.10171601,-0.092080645,0.077906646,0.04480768,-0.1094653,-0.060456797,-0.11181751,-0.053997576,-0.07763729,-0.05404862,0.039937
-0.059664626,-0.104514785,-0.09799593,0.08253195,0.051599078,-0.10384617,-0.07594877,-0.110168464,-0.047816552,-0.08615225,-0.048107944,0.06656482
-0.09073699,-0.15357652,-0.122895055,0.13750148,0.05913443,-0.14652193,-0.06473977,-0.13505161,-0.07767922,-0.08327049,-0.084087744,-0.004907564
-0.090626486,-0.16557595,-0.11537008,0.12747997,0.052633055,-0.13932632,-0.06438945,-0.12671314,-0.059741125,-0.04993657,-0.055701487,0.0408869
-0.13251036,-0.19239707,-0.16791925,0.17600664,0.048510257,-0.18016139,-0.06276948,-0.06814886,-0.030590728,-0.05059297,-0.09879248,0.015487003
-0.066317424,-0.10382278,0.008371502,0.10884745,0.002778856,-0.07248849,-0.02705678,0.0014603105,0.12957938,0.083564974,0.019665025,0.06481253
-0.07775721,-0.15219004,-0.07561924,0.13476446,0.04779923,-0.10106035,0.10974433,0.16045147,0.04694993,0.052685726,0.0040382138,0.00584199
0.38621685,0.31415722,0.15936908,-0.33523956,0.12351579,0.25645974,0.09203482,0.42372203,0.6685649,0.6436654,0.5457744,0.4530034
0.1268794,0.39350376,0.44660455,-0.26067102,-0.24406284,0.40454653,-0.3316862,-0.17673934,0.122039,0.46516338,0.53359926,0.5165815
-0.14347458,-0.09631712,0.03045594,0.1765584,-0.16096738,-0.024470266,0.037106976,-0.07184138,-0.19370206,-0.12708509,-0.028027454,0.017461017
-0.031630438,-0.07060965,-0.007080366,0.056530308,-0.05433156,-0.040886834,0.06587562,0.026106955,-0.037533555,-0.043478604,-0.0062654214,0.035447504
-0.061838955,-0.12290768,-0.03829109,0.09437089,-0.020756708,-0.08074332,0.06247681,0.041864365,-0.05134564,-0.05538378,-0.044410177,-0.035081517
-0.038277235,-0.06531362,-0.011864733,0.055653803,-0.015535837,-0.045008115,0.031867802,0.032570936,-0.021431401,-0.03729386,-0.019195192,0.0022641513
-0.040512085,-0.069334775,-0.011683319,0.06217936,-0.0031285658,-0.05114325,0.022488074,0.041643687,-0.023901567,-0.06268642,-0.046260737,-0.0425688
0.017118381,-0.03738663,-0.02640551,0.013071472,0.035043675,-0.03361851,-0.0003226651,0.04792834,0.0023005288,-0.022167448,-0.0055477303,-0.007319961
0.024622753,-0.01983814,-0.03121264,0.0014470347,0.028950153,-0.025796708,0.0051155956,0.08267608,0.02756664,-0.021472469,-0.012993213,-0.021517042
0.095796406,0.01820632,-0.06113507,-0.05150562,0.10030874,-0.012659172,-0.0018717721,0.13204134,0.100554205,0.041971106,0.0056082252,0.0065097865
0.14345756,0.08540668,-0.005799757,-0.0907509,0.10880099,0.019368993,0.02812278,0.17191935,0.1273068,0.044925474,0.042978078,0.0069711134
0.2642279,0.16430344,-0.03481608,-0.2119962,0.22054388,0.05807665,0.03353149,0.24810767,0.21311642,0.11264675,0.074889384,0.0027351137
0.3073972,0.18555215,-0.022849523,-0.26018697,0.21751146,0.084807426,-0.041010074,0.11157289,0.10887811,0.045653764,0.049383022,0.00050299475
0.37775955,0.20433855,-0.07310752,-0.30259508,0.2798335,0.05822462,-0.017309379,0.09227849,0.016412215,0.026224736,0.11714629,0.055442277
0.31986898,0.20303258,-0.04606863,-0.2796756,0.2276767,0.055007793,0.006134838,0.037824057,-0.03318694,0.025645351,0.10253073,0.08256051
0.160815,0.117114455,-0.038104884,-0.1676363,0.08963561,-0.0072564175,0.07204043,0.03859912,-0.07963813,-0.007375388,0.044749834,0.07225888
0.016552554,0.0077999667,-0.034453034,-0.03695876,0.004660099,-0.06123271,0.08366606,0.054257967,-0.077234186,-0.055452522,-0.024359314,0.008521797
-0.0629369,-0.04605233,-0.0149729345,0.039081845,-0.059566326,-0.059781186,0.078399144,0.009697329,-0.05618318,-0.07398627,-0.049831927,-0.00028748158
-0.08590174,-0.057136457,-0.013232433,0.069838285,-0.06320571,-0.05551374,0.07170625,-0.010303181,-0.07695655,-0.092728116,-0.08047765,-0.019332185
-0.07430932,-0.04393328,-0.005990006,0.06228559,-0.053395066,-0.039130688,0.03503348,-0.015382346,-0.07091863,-0.09401197,-0.08225636,-0.011273889
-0.05828348,-0.03738931,-0.020391192,0.048526824,-0.01634901,-0.03620592,0.006187574,-0.020293789,-0.07935609,-0.09841839,-0.08686227,-0.006248622
-0.050039068,-0.041253533,-0.011839985,0.042909134,-0.016829142,-0.031703033,-0.013093332,-0.035153642,-0.06582237,-0.06762408,-0.06467025,-0.0046208575
-0.049794693,-0.04386142,-0.018419452,0.042330336,-0.009964028,-0.034303527,-0.033090226,-0.034192294,-0.060154937,-0.07979574,-0.064918816,0.004877302
-0.061173536,-0.05279935,-0.006314314,0.057423513,-0.019786889,-0.026130255,-0.031671256,-0.035530403,-0.056349583,-0.056489173,-0.054606393,0.004884023
-0.043266032,-0.045777094,-0.028316671,0.03285441,0.0076157018,-0.029917082,-0.02985935,-0.026640592,-0.05655449,-0.063911445,-0.05286742,0.012878452
-0.06468484,-0.049843088,-0.02009939,0.05903767,-0.016130796,-0.03817859,-0.013698412,-0.023587095,-0.04376757,-0.052767135,-0.06118264,0.003409124
-0.072944425,-0.048351895,-0.013498804,0.05481873,-0.02386665,-0.042480115,0.0020683217,-0.02319334,-0.041513227,-0.06560544,-0.06847736,-0.0001421445
-0.064646624,-0.03308948,-0.004566342,0.05093126,-0.026763054,-0.025965614,-0.016158702,-0.052334808,-0.036599103,-0.049191248,-0.061377145,-0.0030254875
-0.020918,-0.02045654,-0.023301395,0.01715391,0.016765814,-0.02477406,-0.024865564,-0.05668851,-0.03404353,-0.059424974,-0.048900522,-0.0037887434
-0.018050179,-0.018138079,-0.025588147,0.015644768,0.016384766,-0.025102867,-0.03370948,-0.07337684,-0.041123614,-0.046712533,-0.039948463,-0.010483936
-0.009773796,-0.021483403,-0.03916245,0.012589031,0.029417979,-0.037437033,-0.036422487,-0.06753632,-0.039118506,-0.06549165,-0.05360852,-0.0062161046
-0.01272391,-0.019501865,-0.021508345,0.016929569,0.0284166,-0.022411345,-0.047224917,-0.08542953,-0.044379085,-0.055957045,-0.036832623,0.005274374
-0.013758608,-0.030431159,-0.035919204,0.012593769,0.031755574,-0.027356809,-0.04622149,-0.0600888,-0.056414396,-0.083054416,-0.05766099,0.0024861367
-0.02852978,-0.04973925,-0.023822581,0.035355553,0.009662891,-0.036677405,-0.042717654,-0.05126676,-0.05421485,-0.05798581,-0.05623456,0.0006150459
-0.03574081,-0.05648676,-0.04204774,0.040198106,0.015250121,-0.054102205,-0.0405836,-0.027516907,-0.056879833,-0.08036318,-0.062052988,0.0018420899
-0.03657692,-0.03972234,-0.021978376,0.046658512,-0.0029428238,-0.038680445,-0.015738947,-0.011485901,-0.042741,-0.052578915,-0.047717102,0.007732616
-0.021989968,-0.017860113,-0.014513306,0.022729378,0.010211708,-0.027572721,-0.006732592,0.006679328,-0.052435987,-0.06488461,-0.033892818,0.02527051
-0.01911069,-0.023867065,-0.013546631,0.025705336,0.011153562,-0.02011174,-0.015937414,-0.010297577,-0.053229637,-0.05609611,-0.029561175,0.010169822
-0.052665614,-0.04360265,-0.012483859,0.041946333,-0.012211714,-0.031643473,-0.01657087,-0.015682228,-0.056304514,-0.05677483,-0.038322173,0.015559587
-0.05310075,-0.04357979,-0.020759683,0.050182924,-0.015495872,-0.04000231,-0.015305197,-0.008781944,-0.05533191,-0.063860275,-0.053478524,0.009226855
-0.07755793,-0.085149325,-0.024684202,0.06941783,-0.0066871224,-0.04636953,-0.018282255,-0.017296234,-0.062062204,-0.07309943,-0.063920856,-0.00812869
-0.058776613,-0.035030715,-0.05387678,0.094482206,-0.013225026,-0.058746345,-0.024845678,-0.01953349,-0.027896704,-0.070024654,-0.05749417,0.03375996
-0.06609823,-0.06314551,-0.009750787,0.09336662,-0.014894279,-0.06790869,-0.0051904186,-0.015424827,-0.053252608,-0.05182076,-0.07704584,0.017067894
0.19159919,0.14904512,0.048843607,-0.16223976,0.08106104,0.08101577,0.01495304,0.11544071,0.20508577,0.26064414,0.18172394,0.1904344
0.285509,0.3541266,0.30397087,-0.35601193,-0.021270672,0.32690436,-0.20039976,-0.083604254,0.18072271,0.46113706,0.5037493,0.49861762
-0.020339534,0.054253537,0.059840173,-0.039554346,-0.091553494,0.05268404,-0.08664971,-0.15858339,-0.2446507,0.02627484,0.121489756,0.1687647
-0.02728674,-0.028949924,-0.0606497,0.047744818,-0.007479783,-0.07647678,0.111310616,0.038119264,-0.044344395,-0.058767978,0.025301011,0.10250754
-0.049119484,-0.04824499,-0.0035883267,0.048517775,-0.07306947,-0.037811536,0.102186784,0.03550277,-0.043191813,-0.07656619,-0.02418003,0.05020032
-0.095306024,-0.042410057,0.025100596,0.07831309,-0.08056933,-0.028071009,0.08393285,0.043930873,-0.029214084,-0.07007253,-0.05434253,0.03183753
-0.093501955,-0.055746965,0.026015105,0.07089825,-0.067262605,-0.024419725,0.08713147,0.041284055,-0.027768562,-0.06537544,-0.06629335,-0.010798063
-0.088543475,-0.03145925,0.02119746,0.059107833,-0.058993448,-0.020479452,0.0813366,0.043635666,-0.020035928,-0.043663975,-0.03874047,0.0022986033
-0.056488242,-0.034937814,0.007202443,0.040582117,-0.02910988,-0.019626837,0.08631194,0.05601994,-0.00031370483,-0.012929894,0.0043502473,-0.0014868707
-0.021967884,-0.012761481,-0.015619116,0.018988885,0.0002167034,-0.028767413,0.09669954,0.0686439,0.031071069,0.011785286,0.013584698,0.010426338
0.07101698,0.026922638,-0.070535995,-0.0420678,0.07737665,-0.02130476,0.048410114,0.087950505,0.12276066,0.06450963,0.031900555,0.012240439
0.17294434,0.066902764,-0.07348671,-0.11426179,0.15761736,0.010759518,-0.030651085,0.085726,0.18016608,0.09098386,0.055772178,0.000837856
0.28664437,0.14754222,-0.059413716,-0.23212567,0.21911706,0.053485766,-0.11832653,0.17280775,0.2858819,0.18803948,0.14959915,0.08588023
0.22268754,0.12131453,-0.0053454675,-0.16228926,0.1226513,0.060354643,-0.14203615,0.16945574,0.27201676,0.17004488,0.12747094,0.118565276
0.14669871,0.06740177,0.008313801,-0.1024476,0.06496701,0.031515457,-0.054079514,0.13042596,0.21879143,0.13645636,0.09352965,0.11663409
0.0022951295,0.013113398,0.034289777,0.0036460785,-0.043450087,0.009198524,-0.0116902925,0.08110579,0.08443858,0.02939333,0.017294766,0.075604856
-0.04401658,-0.00903053,0.050898828,0.056959674,-0.088353306,0.0023697568,-0.021753235,0.0135280555,0.007210439,-0.0360255,-0.022425946,0.02824366
-0.08604485,-0.03146306,0.039020926,0.07602611,-0.08098741,-0.013689637,0.005347156,0.007261597,-0.052789226,-0.065563,-0.06473111,-0.0022087893
-0.052912097,-0.02828831,0.034211263,0.054236747,-0.059560783,-0.004929033,-0.0026179524,0.0004094271,-0.074051104,-0.05638378,-0.04804185,-0.019057907
-0.06425454,-0.046089776,0.029070081,0.05592411,-0.063097715,-0.023807582,0.0037988056,-0.011995617,-0.08773926,-0.060372315,-0.05900827,-0.026799131
-0.07563964,-0.04320559,0.04700678,0.06757863,-0.08433452,-0.0066302633,0.0070135687,-0.01960195,-0.080385566,-0.04954443,-0.050301716,-0.008606436
-0.109127134,-0.054267164,0.0628976,0.086144716,-0.12567684,-0.0121054705,0.010506546,-0.038114876,-0.0990785,-0.06536004,-0.07402607,-0.037904795
-0.081522435,-0.041635606,0.051464073,0.06836444,-0.10010214,-0.002903347,-0.001643742,-0.028236872,-0.08712334,-0.051623456,-0.06635082,-0.032579005
-0.08068481,-0.05051102,0.049573757,0.06809131,-0.08687962,-0.0030476423,-0.011938512,-0.018440673,-0.0794115,-0.048309274,-0.06336757,-0.04369864
-0.07404669,-0.021157859,0.056712233,0.06062735,-0.11414232,0.01779274,-0.0140344445,-0.02087132,-0.0746028,-0.054148737,-0.056478895,-0.04795223
-0.033967413,0.010269161,0.04165352,0.019597929,-0.042734466,0.032992035,-0.013763322,0.0015264747,-0.045505203,-0.04204392,-0.03631752,-0.014753051
-0.019773787,0.006372767,0.0027943873,0.01850947,-0.014913401,0.008121036,-0.03096728,-0.016850479,-0.041776657,-0.044418637,-0.04305964,-0.031252794
-0.0360077,-0.006893783,0.0060386946,0.028349359,-0.022433283,-0.0045517148,-0.021122694,-0.012895847,-0.046369605,-0.06809233,-0.059502788,-0.01912864
-0.056257576,-0.03624108,0.010256479,0.044143807,-0.02293891,-0.017998429,-0.020099204,-0.0076432135,-0.05555138,-0.06442844,-0.063593715,-0.016438674
-0.08398205,-0.051488712,0.039072774,0.06429223,-0.08125278,0.006393427,-0.009860031,-0.0018949285,-0.07591963,-0.086041026,-0.093112096,-0.038752694
-0.076439165,-0.036913596,0.047204226,0.05966787,-0.072120406,0.009096302,0.010777775,-0.003622366,-0.07640369,-0.061492495,-0.08368176,-0.043581553
-0.06710282,-0.016974911,0.056421064,0.048939515,-0.08805092,0.020378707,0.007485203,0.0045678164,-0.08093959,-0.08202454,-0.07954155,-0.05532405
-0.055882294,0.0020167646,0.058419302,0.03047957,-0.08113365,0.036384426,0.016463757,0.00012133829,-0.06946769,-0.06360809,-0.06319392,-0.053684317
-0.034595806,0.00667222,0.025822856,0.019511806,-0.036142103,0.012794187,0.016445693,0.017352844,-0.06346988,-0.07382961,-0.060386084,-0.04931735
-0.014235061,0.001959558,-0.0075098425,0.012708263,0.00016028946,-0.00966552,-0.0039107287,0.016091995,-0.046214662,-0.058610998,-0.051301576,-0.05634119
-0.010889925,0.009449445,0.007400914,0.010276563,-0.019202221,0.0063115954,-0.025556305,0.008139603,-0.0656803,-0.088728584,-0.06520108,-0.047735944
0.010069976,0.018735416,-0.010908755,0.0037111028,0.014709444,-0.0049910615,-0.053393047,0.009293124,-0.029400485,-0.075067446,-0.05620549,-0.039295524
-0.011446546,0.021497192,0.028480818,0.009938014,-0.02532651,0.02351459,-0.07088939,-0.004789043,-0.0871204,-0.111812554,-0.07828794,-0.04569061
0.031211223,0.012425583,-0.009572278,-0.020226993,0.04408773,-0.00084641855,-0.098940924,0.0025394866,-0.062603354,-0.070099995,-0.046573423,-0.04622715
-0.05234708,-0.02922384,-0.005329829,0.04519038,-0.04084523,-0.032052755,-0.06531559,-0.028713642,-0.11097761,-0.1178944,-0.10171911,-0.07253557
0.001378777,-0.026195524,0.00920101,0.014923815,0.023774428,-0.025743932,-0.098273434,0.0021627308,-0.07969002,-0.048459604,-0.004258792,-0.0068410076
-0.1245259,-0.09275862,0.01693289,0.13722783,-0.07846722,-0.033220254,-0.06798109,-0.07620963,-0.13027926,-0.13864248,-0.11521927,-0.12020582
-0.11155273,-0.067759104,0.049644,0.09322975,-0.096893765,-0.023940368,-0.11596789,-0.0085488,0.024893766,0.05698333,0.01953078,0.0242722
-0.09930148,-0.16961323,-0.054895222,0.14715084,-0.057090897,-0.1135584,0.06879397,0.16886199,0.07445929,-0.047152355,-0.1586718,-0.020794433
0.5021223,0.4958,0.33093888,-0.5133258,0.09984819,0.45015883,-0.22615388,0.2702186,0.8300365,0.81988597,0.637864,0.66309875
0.08215722,0.112369835,0.1940417,-0.1161744,-0.116332404,0.20764442,-0.52258533,-0.1787255,0.3267669,0.5766933,0.45057467,0.42093068
-0.15850672,-0.18141817,0.03549874,0.16874301,-0.1833666,-0.036084022,-0.064749256,-0.18814449,-0.22773232,-0.1328867,-0.14719647,-0.060812555
-0.08830393,-0.04660946,0.060231045,0.07007425,-0.07709764,-0.012974771,0.005386541,-0.026215667,-0.020013765,0.026183045,-0.014176654,0.071666785
-0.14172724,-0.09802006,0.015453912,0.14213601,-0.12975335,-0.07054836,-0.006710489,-0.058961615,-0.09672008,-0.080923796,-0.1105637,-0.0056066494
-0.17824468,-0.050827086,0.12784748,0.11221039,-0.20719154,0.017726816,0.025905373,-0.013381196,-0.008651146,0.015226908,-0.05767194,0.018505853
-0.20072496,-0.05182252,0.10360729,0.13756591,-0.23672879,0.0066422466,0.036991227,0.008201184,-0.04353018,-0.03351427,-0.1028756,-0.028008852
-0.15354276,-0.0014515263,0.17080367,0.07243871,-0.26737112,0.07187175,0.025771605,0.017160485,0.05598557,0.04714629,-0.039296575,0.060354896
-0.16925737,-0.03853328,0.11585389,0.10373568,-0.2274084,0.030541247,0.040201657,0.054154105,0.08027398,0.06715464,-0.023854507,0.04856513
-0.121075444,-0.038512014,0.13794751,0.07892521,-0.19108611,0.04340353,0.0491126,0.102894284,0.1377791,0.10736877,0.046900563,0.070910774
-0.06521293,-0.02295581,0.10482761,0.042769358,-0.13554227,0.059929945,0.046182096,0.13656656,0.16780205,0.15940917,0.07719875,0.09400976
0.0036326703,0.014613224,0.11442724,-0.02571706,-0.08423533,0.09687195,0.06997892,0.17052795,0.23670888,0.21972808,0.13081013,0.1306153
0.057511818,0.05084705,0.13781118,-0.046175722,-0.08061656,0.11584009,0.053403087,0.1832765,0.22130461,0.24738473,0.13719842,0.10757421
0.08608085,0.14105445,0.26780137,-0.12826255,-0.14302924,0.20490395,0.025128905,0.13664906,0.24194194,0.2986331,0.20072538,0.15417603
0.027037472,0.08711784,0.2574049,-0.06292306,-0.18104471,0.14779374,-0.0008049924,0.06288301,0.13091233,0.20589805,0.15927048,0.12261813
-0.037879355,-0.010727983,0.14179346,0.029182434,-0.11772499,0.056559473,0.052080438,0.055344775,0.019193927,0.049754497,0.050469317,0.043305993
-0.051315628,0.029227773,0.1136004,0.032611087,-0.12801819,0.044943795,0.04848145,-0.018387018,-0.065657645,-0.033656664,0.005059977,0.0071580308
-0.036765996,0.023198567,0.04818937,0.008613486,-0.0521953,0.03344602,0.018174743,0.0033667604,-0.053176805,-0.05887203,-0.021549366,0.027938478
-0.05316115,0.0096810255,0.0024082367,0.036529567,-0.05574665,-0.0030830214,0.006873298,-0.029974049,-0.086105086,-0.10442711,-0.06876882,-0.01824537
-0.055738784,-0.014151126,0.020021206,0.03141496,-0.044883132,-0.0055799307,0.031305157,-0.012902498,-0.09429969,-0.07051828,-0.039314136,0.017463002
-0.08113635,-0.05295198,0.013648971,0.072668575,-0.08488218,-0.044978738,0.03158136,-0.0043006158,-0.08270167,-0.0633605,-0.058610044,-0.006615405
-0.12792283,-0.012574803,0.19217685,0.073960565,-0.24265842,0.08186261,0.03249163,-0.021050612,-0.067971185,-0.02650878,-0.06837917,-0.0057481905
-0.17849708,-0.026032373,0.18201528,0.107206635,-0.28803116,0.045634843,0.04675726,-0.024748372,-0.0897416,-0.05684974,-0.14966255,-0.04462335
-0.11949757,0.0444123,0.16838303,0.04222751,-0.24522817,0.09305055,0.009630772,-0.03699425,-0.04303144,-0.030483007,-0.10162995,-0.018627407
-0.116683714,0.05184211,0.13363107,0.027678058,-0.21382378,0.07553261,0.020378582,-0.06781312,-0.09930522,-0.07068101,-0.12297259,-0.04314759
-0.06274046,0.005751803,0.0008559318,0.024056995,-0.06249906,-0.0019209385,0.02299584,-0.014946334,-0.07524995,-0.08203383,-0.09178757,-0.036659803
-0.05296912,-0.015539102,0.0076572425,0.030921632,-0.056114677,-0.0032033548,0.011488967,-0.017439019,-0.0760665,-0.090699695,-0.088734046,-0.04838837
-0.07231155,-0.03045379,0.0026801715,0.052131508,-0.055189002,-0.0147007145,0.01962738,0.0021436606,-0.083865374,-0.08943201,-0.08846651,-0.03146624
-0.07403359,-0.015728027,0.029342234,0.06055137,-0.08020905,0.0028427737,0.011937836,0.007992542,-0.09770055,-0.08694624,-0.08308938,-0.04036861
-0.08079827,-0.009136525,0.09890932,0.054488875,-0.14434427,0.04030346,0.036486782,0.0013611845,-0.08484617,-0.074909315,-0.096962,-0.05875849
-0.091727845,-0.0004047393,0.09817677,0.053437933,-0.16803336,0.031356104,0.03314665,-0.024330927,-0.10692139,-0.087320484,-0.116624266,-0.077174746
-0.09578476,0.003777794,0.12377994,0.047907643,-0.19298448,0.041982308,0.022107333,-0.031280205,-0.10742703,-0.06799042,-0.104939714,-0.08264012
-0.093237296,-0.0011793384,0.1061824,0.056173403,-0.20477718,0.013956936,0.007393868,-0.03765875,-0.13756822,-0.06336014,-0.104315795,-0.071774974
-0.1036996,-0.022920853,0.13898513,0.062874645,-0.22721155,0.017872784,0.0035744961,-0.035432905,-0.12059878,-0.03804537,-0.085540175,-0.057111755
-0.10336816,-0.014786413,0.15417469,0.068426356,-0.25194234,0.022709003,0.0065970924,-0.040519908,-0.13629824,-0.06275536,-0.100086294,-0.06156485
-0.10014265,-0.014257219,0.16940267,0.055874307,-0.23715757,0.035909772,-0.0071055484,-0.042236187,-0.11638471,-0.046956666,-0.09071472,-0.049329054
-0.071893506,0.00418238,0.13966452,0.05028665,-0.21789871,0.029823584,-0.017774204,-0.038291708,-0.12646542,-0.07089967,-0.10347017,-0.03685188
-0.09991844,0.033625767,0.16155396,0.04160497,-0.22227281,0.06111502,-0.03424206,-0.04867074,-0.10165985,-0.040480297,-0.09386373,-0.02046071
-0.09978844,-0.024990054,0.045767978,0.073434845,-0.16259292,-0.043078564,-0.015754525,-0.044289432,-0.13552137,-0.10172375,-0.12409118,-0.032976035
-0.1488362,0.008148575,0.11892389,0.062351316,-0.19669437,0.048412412,0.045831904,-0.029483328,-0.055110686,-0.032014024,-0.04386469,0.01210677
-0.24535227,-0.08926824,0.009517621,0.18625674,-0.17869174,-0.07561476,0.0984698,-0.088215016,-0.09236833,-0.12183585,-0.10339958,-0.04130758
-0.13926435,0.11276124,0.12431206,0.039108157,-0.15589696,0.06720234,0.08397474,-0.045569718,0.050663956,-0.024969608,-0.06609533,0.045083266
-0.2590551,-0.15347028,0.009391258,0.25431892,-0.1309644,-0.13206801,0.33338284,0.18502803,-0.026864223,-0.14814398,-0.12616508,-0.07006248
0.27486128,0.66961837,0.6406191,-0.5165112,-0.3442313,0.6949013,0.012722515,0.08938309,0.42306647,0.6580189,0.66811484,0.66952735
0.1115813,0.69647264,0.67259794,-0.45438358,-0.49906188,0.6865341,-0.45871526,-0.72933245,-0.40772384,0.2980035,0.48322067,0.655048
-0.29424244,-0.20931052,-0.20108785,0.2725446,-0.16092522,-0.26481286,0.36053327,0.060566083,-0.274765,-0.31209663,-0.27533382,-0.15689114
-0.14153859,0.00952746,0.15783103,0.072325625,-0.15724613,0.07074187,0.12406993,0.09947819,0.066043,-0.0424607,-0.02481865,-0.012832606
-0.0985743,-0.056797437,0.07719766,0.11186827,-0.09013203,-0.020069264,0.17887045,0.13304938,-0.0791304,-0.12963589,-0.13720338,-0.08944775
-0.059833284,0.050301004,0.19861604,-0.007274228,-0.10694576,0.13231085,0.087969914,0.08066306,-0.018671192,-0.023723979,0.017171515,-0.04784329
-0.06613995,0.023516072,0.17513189,0.007011274,-0.14865771,0.062403888,0.0950752,0.01813764,-0.05478608,-0.034887098,-0.016003683,-0.054567214
0.027162762,0.103612036,0.16718452,-0.07792641,-0.08140048,0.109223664,0.07151392,0.06718276,0.050939932,0.039037418,0.06327594,0.053544853
-0.032572992,0.045886986,0.17294958,-0.025898786,-0.13109629,0.055954017,0.11963653,0.08786387,0.050301746,0.06291077,0.03166472,0.023784492
0.048476182,0.14172477,0.20957635,-0.12751266,-0.10978875,0.15372188,0.10566825,0.14138797,0.1369636,0.12950274,0.099144585,0.094510846
0.0056674588,0.14862792,0.25448805,-0.072152555,-0.20817836,0.15615402,0.12305374,0.16847314,0.124684565,0.10349911,0.08853964,0.11458332
0.08666368,0.31586835,0.36143866,-0.22528628,-0.24992375,0.31671137,0.1033044,0.21218352,0.22866431,0.20213686,0.17709185,0.20622428
0.12415113,0.31371,0.40506876,-0.23609063,-0.26938188,0.34230807,0.07457089,0.22194709,0.28069282,0.23716226,0.21501152,0.24895845
0.11558575,0.33257785,0.46338975,-0.26183265,-0.2865647,0.3929873,0.007998945,0.13435122,0.26784438,0.31596366,0.25763497,0.28531367
-0.0077783996,0.10071008,0.32272264,-0.050633956,-0.25154006,0.1746889,0.0408076,0.12096277,0.16896781,0.14336377,0.08702812,0.12013977
0.016726743,0.048265427,0.19948266,-0.037421953,-0.10490515,0.1065551,0.02332207,0.09707591,0.09530031,0.109799676,0.07394885,0.076077424
-0.043596882,-0.010991493,0.11820801,0.033542998,-0.14041565,0.026643401,0.050278466,0.01658468,-0.0022733295,0.0051922966,-0.031684265,0.0075172605
-0.051772915,0.02008558,0.16843174,0.019188797,-0.17870222,0.062787354,0.020089071,-0.012116222,-0.04449945,0.009888241,0.0067428118,0.0043204287
-0.15394777,-0.00316875,0.25881323,0.06552735,-0.30121934,0.11271118,0.018289741,-0.029386995,-0.09010227,-0.023459995,-0.07491236,-0.053589966
-0.14992788,0.00058438024,0.24151754,0.060064863,-0.2959283,0.09123907,0.039440375,-0.038721316,-0.0507129,0.012583647,-0.048888177,-0.0530161
-0.12118659,0.033921055,0.21105579,0.034056697,-0.26048654,0.09328405,0.009175976,-0.018605724,-0.059773684,-0.005305344,-0.05263987,-0.049904726
-0.10713957,0.04532429,0.23468122,0.020377018,-0.27831024,0.113337636,0.01973842,-0.050800264,-0.08212824,-0.021759206,-0.038295925,-0.06488303
-0.053257708,0.019346511,0.11056996,0.015855424,-0.1405108,0.036022663,0.022855697,-0.038964108,-0.103128046,-0.08388931,-0.07492619,-0.0809417
-0.037560686,0.038224965,0.13761611,0.002580246,-0.13007961,0.0674749,0.036979094,-0.023419369,-0.08455284,-0.08066912,-0.0422555,-0.076116756
-0.055580407,0.023342026,0.082014196,0.037726954,-0.12972136,0.030891607,0.041351717,-0.027435126,-0.106104195,-0.106717095,-0.08794414,-0.08990999
-0.04228874,0.04313034,0.10437178,0.009035215,-0.11633182,0.0707794,0.03987733,-0.04179378,-0.09698307,-0.118595265,-0.07348893,-0.10314318
-0.048047353,0.032769434,0.05907578,0.016966557,-0.08453886,0.05398512,0.01745507,-0.027745495,-0.085775085,-0.101691075,-0.07023618,-0.11344146
-0.024511073,0.040397964,0.049991272,0.0021697786,-0.06890051,0.052508317,-0.006647751,-0.019059377,-0.0714533,-0.07438826,-0.062941335,-0.107895084
-0.051476415,0.00466127,0.057825774,0.025477324,-0.08315448,0.030927068,0.0067545967,-0.019105185,-0.063230105,-0.0455675,-0.066293925,-0.11486608
-0.058554165,0.0147220865,0.05966991,0.021448638,-0.11022465,0.06061008,-0.010089876,0.014918929,-0.05402162,-0.030532304,-0.053844772,-0.09196827
-0.10372288,-0.021406284,0.13292107,0.064342655,-0.19350378,0.061596155,-0.004290359,-0.0012669107,-0.06466278,-0.049620815,-0.09269125,-0.12326089
-0.10672091,-0.003399312,0.12602381,0.058232162,-0.19936612,0.06379981,-0.0045420756,0.0015528481,-0.05253481,-0.039904926,-0.09776963,-0.106570005
-0.1131287,-0.005068869,0.1127523,0.060991116,-0.20948358,0.032911852,-0.018549018,-0.019549036,-0.059632212,-0.027262984,-0.10265282,-0.07828142
-0.12208934,-0.008678439,0.14717858,0.069235906,-0.24896415,0.03612385,0.023141967,-0.0059608677,-0.009616506,0.04071881,-0.042946137,-0.029309925
-0.15855062,0.039706923,0.25421783,0.07306438,-0.3689522,0.09904411,0.03152508,-0.024970496,-0.03779623,-0.008236852,-0.059748337,-0.030387577
-0.15513855,0.11047171,0.30938268,0.02620435,-0.3992839,0.13488753,0.010020202,-0.07707494,-0.0480342,-0.0017516501,-0.042036474,-0.025934305
-0.11696686,0.10985805,0.20611267,0.0002266519,-0.2983119,0.10906698,-0.03698821,-0.047216147,-0.08934859,-0.057795055,-0.11591972,-0.03137876
-0.1308138,0.088422574,0.21781003,0.030771185,-0.31884348,0.11671147,-0.002493876,-0.07040828,-0.04025703,-0.06702604,-0.1051786,-0.051983163
-0.093816884,-0.01442384,0.025047787,0.07100939,-0.101633534,-0.02263061,0.022522768,0.0046865623,-0.0657513,-0.06867835,-0.14096452,-0.07683645
-0.102282874,0.050620656,0.1687138,0.042307004,-0.18541068,0.08073932,0.027460214,-0.043816864,-0.011108232,-0.057837967,-0.10628283,-0.122703895
-0.18610406,-0.035628345,0.028836044,0.17110583,-0.16275351,-0.059792258,0.01839684,0.047579095,0.010453491,-0.09058331,-0.11456748,-0.14135668
-0.14734468,0.0062070885,0.19607148,0.030305127,-0.25845456,0.15246552,-0.056703288,-0.07807822,-0.107543536,0.022600457,-0.05608374,-0.08215099
0.13845113,-0.074367985,0.040106818,0.050947666,-0.15111502,-0.03490801,0.39025635,0.29391226,0.12580419,-0.10561995,-0.258197,0.0006807423
0.6215727,0.9733123,0.9220637,-0.86113197,-0.5389516,0.9405118,-0.15865079,0.2866626,0.96323055,0.99567693,0.81309533,0.94204175
-0.45809495,0.24545431,0.60583997,0.06266622,-0.8634971,0.38390297,-0.45167312,-0.47944087,0.24914859,0.5365348,0.20958176,0.43713805
-0.24941814,-0.20858267,-0.08054202,0.22146606,-0.260764,-0.07541649,0.18533994,0.08596514,0.13693252,0.04534461,-0.26451737,-0.081127405
-0.21852243,-0.059816822,0.1788912,0.16618857,-0.28149688,0.053211607,0.090112604,0.056804895,0.14425065,0.07981194,-0.102418676,-0.08542958
-0.23501307,-0.07844155,0.1565192,0.17956132,-0.33719343,0.02435792,0.10796492,0.031002231,0.066864505,0.037146796,-0.13333075,-0.069251895
-0.23017642,0.020547993,0.21173535,0.10761185,-0.37377262,0.07890909,0.07153751,-0.022070695,0.05622372,0.06070974,-0.1270296,1.8954277e-05
-0.17623615,0.07484436,0.23064844,0.07196942,-0.35599506,0.0975583,0.08706553,-0.016345046,0.034671612,0.0056413887,-0.088243425,-0.0075169634
-0.18417934,0.14239414,0.26415604,0.0041890643,-0.3438214,0.1664356,0.06955629,-0.031979382,0.023460278,0.028533135,-0.041231737,0.0065811956
-0.12610796,0.16419467,0.23827663,-0.023448825,-0.31142557,0.17637323,0.087720826,-0.0012965067,0.04356639,0.022268392,-0.042086497,0.005826488
-0.08376887,0.15734848,0.2071901,-0.037111096,-0.25892758,0.16744186,0.0798112,0.045373037,0.09061718,0.018709272,-0.02921286,0.015905265
0.014068261,0.21134362,0.2341883,-0.11489061,-0.24891295,0.19754282,0.050469726,0.06872576,0.181905,0.06796774,0.024459833,0.086401515
0.017351862,0.239418,0.29708865,-0.14150274,-0.29831403,0.20595063,0.058318686,0.0463451,0.16729468,0.051825646,0.030848699,0.103685856
0.025533164,0.28396964,0.35605505,-0.18750188,-0.35306656,0.22642478,0.050259814,0.02610111,0.16097195,0.074163355,0.010782169,0.12196509
-0.024163028,0.27875268,0.39046362,-0.1622997,-0.41019,0.23525019,0.012720784,-0.000381405,0.10019496,0.054084662,0.0019967763,0.1462136
-0.13784915,0.17188068,0.3669898,-0.028468672,-0.43617517,0.18362007,0.02394584,0.0464648,0.08699649,0.03262334,-0.061681144,0.085825354
-0.16016409,0.13465774,0.32543492,0.020359963,-0.39598835,0.17520437,0.01963194,0.0068129264,0.02329197,-0.00921917,-0.09248072,0.05052169
-0.1525689,0.06957274,0.17188257,0.060466498,-0.24926628,0.09109615,0.06510623,-0.029606646,-0.037013523,-0.027686488,-0.10509197,-0.028147176
-0.12928155,0.06726467,0.16047019,0.057920445,-0.22622415,0.094462276,0.09033942,-0.076330826,-0.07947573,-0.085000716,-0.08913265,-0.104794696
-0.07259099,0.057869118,0.104917124,0.0061496324,-0.16220817,0.07487891,0.101618394,-0.10180606,-0.08210877,-0.07860381,-0.059910364,-0.11247226
-0.037264522,0.047473945,0.06570634,-0.01297966,-0.105306625,0.051701926,0.06713041,-0.08531904,-0.07494381,-0.06147892,-0.04366468,-0.10696227
0.020526767,0.0515075,0.018380843,-0.021557491,-0.06754522,0.02778476,0.039386608,-0.06529765,-0.08549051,-0.071389735,-0.04183393,-0.09162129
-0.01798859,0.03403707,0.070476465,0.0006458845,-0.095277004,0.03948272,0.026197027,-0.07579516,-0.091845885,-0.05699446,-0.047164932,-0.058287192
0.010391854,0.013817528,0.027533194,-0.011666221,-0.06663068,0.01155426,0.008157474,-0.060872234,-0.118116096,-0.06260617,-0.05013568,-0.053636968
-0.09411901,0.030894184,0.22188255,0.03955766,-0.2454831,0.11613321,0.00571064,-0.08654208,-0.12821263,-0.0514044,-0.046972975,-0.07921068
-0.120567776,0.016214957,0.16628394,0.048729658,-0.23648846,0.07402731,-0.0010767733,-0.09056172,-0.11283778,-0.04115217,-0.072613284,-0.07442772
-0.12996823,0.046785474,0.18397874,0.05488848,-0.26460958,0.06674484,-0.010519616,-0.1357101,-0.14730804,-0.09470647,-0.10577605,-0.11071297
-0.112874426,0.03525527,0.10884577,0.050865818,-0.2040761,0.023370726,-0.020455003,-0.114695914,-0.13990435,-0.07508673,-0.08396543,-0.100999326
-0.10023616,0.023392318,0.079928525,0.054928128,-0.19817299,-0.004539697,0.0019420439,-0.108323306,-0.15725926,-0.11555556,-0.112761445,-0.1137561
-0.09627981,0.006435841,0.105059765,0.050672065,-0.18975386,0.022455437,0.018647335,-0.07942714,-0.12496844,-0.07470054,-0.07297048,-0.10104163
-0.12972602,0.0072245053,0.13430814,0.07166096,-0.23764317,0.035549812,0.03187562,-0.10346172,-0.15486152,-0.10781701,-0.09999195,-0.14251412
-0.11829063,0.028103469,0.14155476,0.041843563,-0.21785364,0.04098039,0.038134627,-0.11289394,-0.15399045,-0.09870575,-0.06815405,-0.1487919
-0.12624082,0.03725957,0.108925864,0.04053051,-0.20582855,0.037388146,0.03282481,-0.12990482,-0.18990126,-0.11456263,-0.06941387,-0.15466978
-0.11417474,0.03763876,0.12856928,0.036460143,-0.22570935,0.054520287,0.04699931,-0.13326338,-0.16728365,-0.080755554,-0.051378302,-0.152665
-0.10543241,0.017755708,0.17082927,0.03454108,-0.22510357,0.074039005,0.057329718,-0.10315616,-0.14364827,-0.07766269,-0.06066095,-0.16615333
-0.10082311,0.07713357,0.19817936,0.0068504214,-0.22754471,0.13808918,0.039414026,-0.09640206,-0.075343244,-0.014116613,-0.00013338681,-0.15363951
-0.049805462,0.0784437,0.15177618,-0.01264478,-0.1681576,0.11128913,0.019302443,-0.08226155,-0.063999735,-0.035534292,-0.035935648,-0.1485464
0.003691784,0.051006507,0.09186227,-0.023770843,-0.09063893,0.06909401,-0.0072119874,-0.0840197,-0.026295267,-0.010717973,0.003027387,-0.11088709
-0.031092614,-0.04218844,-0.032992937,0.047435828,-0.046434492,-0.045294195,-0.0054403557,-0.10585142,-0.062377274,-0.06725918,-0.09688657,-0.14990005
0.01439744,-0.02325109,-0.017252102,0.022673622,0.0019725664,-0.03897333,-0.013986163,-0.069065206,-0.05909825,-0.022421239,-0.01294985,-0.030210335
-0.14058405,-0.094262175,-0.0098491525,0.15012759,-0.08143095,-0.09188783,0.07660905,-0.038214274,-0.018686302,-0.09582116,-0.111229196,-0.07709074
-0.10361686,0.0742232,0.10626212,0.030116653,-0.13547854,0.06799957,0.01990202,-0.05026009,-0.0058988947,0.027877895,-0.059037343,-0.027648643
-0.08766165,-0.2072006,-0.17140813,0.20133525,0.003591172,-0.19486623,0.27628666,0.19568999,-0.15105149,-0.20088443,-0.2201341,-0.2168572
0.50153625,0.5120295,0.39534485,-0.5417141,0.041097295,0.47706014,0.39725032,0.7540565,0.8648367,0.7036261,0.51630306,0.47761723
-0.085376434,0.749833,0.96519876,-0.39905354,-0.9468627,0.8092669,-0.3004662,-0.30341658,0.11086595,0.27402213,0.3887521,0.48005977
-0.19205979,-0.10012045,-0.17467248,0.18396729,-0.16313078,-0.20222719,-0.017622966,0.05031897,-0.29087678,-0.4056359,-0.30246156,-0.18711838
-0.08771981,-0.023090295,0.15799083,0.08217782,-0.15817444,0.076669216,0.0072839167,0.10704265,0.078095645,-0.004093921,-0.045717448,-0.050739314
-0.16802874,-0.112169884,0.06452016,0.134496,-0.12613565,-0.022373758,0.0661611,0.05388844,-0.022032794,-0.0504209,-0.0990102,-0.13433619
-0.105901346,-0.019244695,0.119021624,0.062733285,-0.108347766,0.059223205,0.05963887,0.035789326,0.010611702,0.007529618,-0.06359917,-0.07170959
-0.072275415,-0.0019887218,0.11967436,0.04421937,-0.14442207,0.05492881,0.042758666,0.017811153,-0.03031101,-0.0049233143,-0.054462798,-0.058660496
-0.06397988,0.0469683,0.1150998,0.005924874,-0.12766372,0.06693367,0.054525472,0.0074331793,-0.00836436,-0.006834348,-0.022186209,0.018679239
-0.054933563,0.020511433,0.08006468,0.00938007,-0.11017692,0.035155356,0.07623194,0.03416662,-0.0051173717,0.005984949,0.0005432246,0.030624382
-0.0039892425,0.06767027,0.069770224,-0.044367123,-0.06484581,0.038473144,0.11158925,0.11177868,0.10085206,0.047597934,0.063802384,0.08782384
0.03396421,0.12349241,0.11476839,-0.0869248,-0.07267706,0.08007577,0.071454406,0.17006922,0.17688146,0.075186834,0.06519738,0.09788935
0.16397598,0.23168541,0.15386467,-0.21885583,-0.015570961,0.16962683,0.023365911,0.21408324,0.28394458,0.15601371,0.13647574,0.1601726
0.19761711,0.26421404,0.24140804,-0.2620659,-0.064456955,0.21601889,0.032174062,0.28667745,0.35236344,0.21411495,0.15257199,0.21114618
0.16668144,0.3002278,0.33836964,-0.27925476,-0.16946414,0.31107855,0.053257987,0.2900995,0.38462672,0.2659807,0.18340291,0.27772918
0.093400404,0.17609079,0.2663243,-0.18248647,-0.113368794,0.19084199,0.0782723,0.26187673,0.30651525,0.20569347,0.15653318,0.23790571
-0.022996522,0.041230198,0.12848146,-0.020215835,-0.09763973,0.07225978,0.06042978,0.16021115,0.13735352,0.07555642,0.02539449,0.12540625
-0.08219352,-0.062413167,0.010493026,0.06708359,-0.082866766,-0.03770543,0.081248336,0.03792599,0.01077093,-0.038152568,-0.03774544,0.03737166
-0.11374548,-0.0737559,-0.06075684,0.106779605,-0.06264859,-0.09482303,0.1062384,-0.014173083,-0.038396217,-0.08584943,-0.034210123,-0.003590908
-0.1776922,-0.118680395,-0.06139908,0.1639919,-0.06332092,-0.10282112,0.1081677,-0.07636802,-0.09361413,-0.09937768,-0.0664334,-0.0686214
-0.1422238,-0.12396438,-0.07322405,0.13740164,-0.030496132,-0.11730584,0.09675897,-0.058974184,-0.08694335,-0.08314154,-0.048917435,-0.049196705
-0.15026024,-0.122886,-0.045532465,0.1491077,-0.05426569,-0.09930775,0.082870744,-0.09502037,-0.11721723,-0.09729043,-0.07235778,-0.09232466
-0.11582916,-0.099758215,-0.05797808,0.11038965,-0.028063849,-0.09698341,0.06801708,-0.0661789,-0.097668715,-0.059142612,-0.03535962,-0.023440279
-0.14220095,-0.116044044,-0.032982625,0.14568922,-0.051776625,-0.09339063,0.0476482,-0.097192146,-0.11983714,-0.092455216,-0.06927688,-0.080469586
-0.113081634,-0.09124683,-0.023110861,0.107892126,-0.03142132,-0.067499086,0.041910727,-0.06171892,-0.10119435,-0.059177008,-0.024730856,-0.021960616
-0.13439384,-0.10996813,-0.0453951,0.14037758,-0.034686096,-0.097166166,0.034881983,-0.09551526,-0.1185208,-0.09107175,-0.062260725,-0.07645378
-0.099863105,-0.103581086,-0.06282556,0.10611489,0.0013904516,-0.09505443,0.03528859,-0.07484627,-0.120117955,-0.06164016,-0.020456899,-0.024372604
-0.12870994,-0.124889456,-0.08032133,0.14386159,-0.007812655,-0.11638731,0.039053425,-0.113808066,-0.13180007,-0.08092437,-0.053643815,-0.051608633
-0.13013819,-0.1275011,-0.069139786,0.12929597,-0.022215847,-0.1138401,0.03717758,-0.12306974,-0.13981533,-0.06606688,-0.04481648,-0.04190976
-0.12358738,-0.12635198,-0.08456718,0.14841387,-0.014286689,-0.12667248,0.029317904,-0.122315116,-0.13359383,-0.08599605,-0.06885752,-0.06652796
-0.09792197,-0.11059414,-0.024649682,0.11265327,-0.037312176,-0.080891006,0.02126834,-0.11253889,-0.113652475,-0.071581125,-0.057762906,-0.06602404
-0.11742965,-0.12000097,-0.03487753,0.13376817,-0.03493272,-0.084484465,-0.0010785651,-0.12865336,-0.11375515,-0.10208585,-0.093428835,-0.09940872
-0.11140202,-0.12134473,-0.037191607,0.12845582,-0.025945073,-0.0820803,-0.013666898,-0.11383179,-0.10411624,-0.07970848,-0.07122243,-0.077604264
-0.14181393,-0.13933976,-0.05576823,0.15060896,-0.035235677,-0.09869842,-0.0078059905,-0.13131396,-0.12583376,-0.1040145,-0.10447845,-0.10501151
-0.12852076,-0.13732308,-0.06725365,0.13823101,-0.013529595,-0.10751733,0.0077224327,-0.105300255,-0.11364454,-0.0717019,-0.0728209,-0.075367086
-0.13018683,-0.10690949,-0.051466182,0.14440387,-0.034989666,-0.10230016,0.021556411,-0.074129306,-0.113573276,-0.08177842,-0.08412898,-0.08792886
-0.08087003,-0.034655824,0.0433439,0.08570587,-0.089290045,-0.011921399,0.024790296,-0.03432756,-0.10055492,-0.071357526,-0.04879047,-0.07408936
-0.03324556,-0.02411045,0.012593226,0.044432804,-0.048494313,0.0077661145,-0.019103548,-0.023845723,-0.07986098,-0.06247697,-0.067335404,-0.08437062
0.02130829,-0.00757632,-0.023994504,-0.0008578467,0.03662446,-0.008105593,-0.079576105,-0.037556067,-0.029424949,-0.03777063,-0.027298732,0.013086277
-0.09359116,-0.12047617,-0.07250727,0.119547,-0.016988164,-0.10230568,-0.06267878,-0.08044779,-0.05720578,-0.07798625,-0.08155579,-0.058764923
-0.025223901,-0.07705442,-0.08583234,0.07383546,0.07926624,-0.103610516,-0.04941221,-0.04656504,-0.032399986,-0.05554663,-0.037656344,0.01865232
-0.15425476,-0.16144669,-0.063031,0.17441642,-0.014841592,-0.12912707,0.023500953,-0.04067889,-0.045257762,-0.08156167,-0.0959298,-0.07391166
-0.044179842,-0.08991233,-0.060004085,0.10176873,-0.011774816,-0.1502342,0.017640574,0.039958484,0.037359513,-0.04488867,-0.06181699,-0.033182196
-0.09188058,-0.12783596,-0.15512845,0.13091624,-0.08056735,-0.19875728,0.11551036,-0.057891898,-0.2124395,-0.21398103,-0.27827215,-0.15216254
0.5012387,0.21201,-0.023181563,-0.3626803,0.30075616,0.09188521,0.15724719,0.6064577,0.7588168,0.51518005,0.19342402,0.20777729
0.7693555,0.91251403,0.7266054,-0.83746684,0.07450006,0.85415715,-0.69844025,-0.109646946,0.82999045,0.9310405,0.8570924,0.9026569
-0.07941085,-0.08647195,-0.14558499,0.12972593,-0.1132721,-0.18206517,-0.18466778,-0.27771363,-0.29279914,-0.12280323,-0.0116064,0.04725003
-0.057818122,-0.1222326,-0.20331511,0.12134706,0.002693339,-0.20924564,0.124562554,0.026964385,-0.04872723,-0.1254754,-0.09451474,-0.060712058
-0.0829328,-0.086895436,-0.10466209,0.09696471,0.03628432,-0.12511578,0.121333495,0.0012989168,0.0038786717,-0.08013875,-0.000113324495,-0.083090484
-0.017048005,-0.081956096,-0.06171889,0.075119905,0.048589326,-0.08486,0.15486327,-0.004522631,-0.008389981,-0.0056760185,-0.02926503,-0.05152071
-0.05747675,-0.109983556,-0.13109379,0.09931524,0.07332321,-0.12613736,0.07974526,-0.01754091,-0.0034344122,-0.056078617,-0.052756213,-0.0635216
-0.034295194,-0.09298806,-0.0798417,0.0752774,0.055466514,-0.09360801,0.05056772,0.010576483,-0.024000894,-0.020332083,-0.007828577,-0.030140057
-0.039298184,-0.094036594,-0.08166631,0.06776859,0.05832521,-0.08325225,0.038515117,0.034525305,-0.024190366,-0.042854488,-0.044254817,-0.03877677
-0.030508082,-0.060010996,-0.046543844,0.04250929,0.018963728,-0.050609715,0.034911953,0.06704264,0.00845897,0.0061321957,0.022549115,0.042860206
0.013380662,0.031355232,0.0075105405,-0.009272144,-0.0004400832,0.010709422,0.06901043,0.11709392,0.067936055,0.01867513,0.050578713,0.046384957
0.075621866,0.10334689,0.04653558,-0.08353698,0.01897238,0.069747515,0.04487008,0.10714687,0.13853759,0.08410011,0.07614671,0.09037521
0.14268616,0.17606747,0.119702436,-0.17040017,0.038185116,0.12667051,0.010492055,0.104145944,0.18642609,0.1453807,0.09423563,0.08999413
0.19361776,0.22074293,0.15706548,-0.2283181,0.06314397,0.16788973,-0.049341865,0.13021225,0.18562761,0.18045078,0.18115388,0.13129601
0.25714424,0.185319,0.027656738,-0.2584028,0.15232705,0.11094346,-0.007968234,0.14359699,0.20303091,0.22013113,0.21886429,0.17182499
0.17383698,0.076273754,-0.04716578,-0.11782346,0.11049621,-0.022221163,0.046946183,0.13180904,0.113171324,0.11210093,0.11892518,0.11333479
0.05597914,-0.006971992,-0.09049019,-0.01182313,0.087245226,-0.084970854,0.010769004,0.05255864,0.017498754,-0.026548259,0.0067767557,0.031006169
-0.033617295,-0.103301466,-0.12249332,0.066218615,0.09364254,-0.11669503,-0.00068994495,-0.033625774,-0.017427575,-0.06121725,-0.039342932,-0.031078745
-0.055661686,-0.1470678,-0.12572688,0.10183352,0.0855338,-0.13377175,0.0091471905,-0.05233086,-0.021160688,-0.04272598,-0.047567666,-0.04039104
-0.086609915,-0.14931428,-0.1448799,0.119640075,0.08388645,-0.13525008,0.023111852,-0.06418457,-0.037839875,-0.033295553,-0.0522516,-0.026873313
-0.05125113,-0.13345492,-0.15259703,0.09577558,0.09809907,-0.14116716,0.0051429784,-0.05492129,-0.00599111,-0.015418299,-0.040739425,-0.01438382
-0.0797581,-0.13867338,-0.12076531,0.12295006,0.07170432,-0.14403991,0.012100719,-0.08320728,-0.045702033,-0.026488954,-0.055550084,-0.04313535
-0.007252183,-0.12255525,-0.18250667,0.06784597,0.14340296,-0.14167432,-0.043250225,-0.10314851,-0.025915897,-0.03207838,-0.0125868395,-0.00018482283
-0.05456885,-0.12606262,-0.10597296,0.10896587,0.065600134,-0.11714341,-0.021168163,-0.1289359,-0.06618814,-0.04205176,-0.062479146,-0.068023816
-0.039736275,-0.12082323,-0.112532414,0.07504715,0.09737725,-0.11849676,-0.044359088,-0.12835826,-0.06396588,-0.035950094,-0.037541352,-0.031488556
-0.020699453,-0.109537765,-0.1167342,0.07267098,0.10413655,-0.10677738,-0.06241519,-0.15336488,-0.06485817,-0.040577233,-0.043174177,-0.03726799
-0.11558532,-0.15528291,-0.10032772,0.14312679,0.02204569,-0.13077597,-0.029016528,-0.15502216,-0.11683545,-0.060807586,-0.091722295,-0.09375531
-0.13855395,-0.1559767,-0.08345961,0.15698984,-0.008848696,-0.11717991,-0.030116357,-0.15152434,-0.13243452,-0.08637733,-0.101616725,-0.09181742
-0.14220303,-0.16068998,-0.06692343,0.15083742,-0.025141906,-0.11112244,-0.05438916,-0.149415,-0.13663344,-0.10071261,-0.12229034,-0.13185503
-0.13482603,-0.1488806,-0.085656606,0.15408805,-0.023573507,-0.124153584,-0.06979415,-0.13862568,-0.15383326,-0.11140208,-0.15456797,-0.16804245
-0.054172467,-0.12808758,-0.09398788,0.10813167,0.035119813,-0.102484316,-0.10239372,-0.11331647,-0.14489916,-0.09561469,-0.11603206,-0.16717374
-0.029616386,-0.1363656,-0.129777,0.10364283,0.075033925,-0.101921864,-0.12878782,-0.12455175,-0.16185382,-0.09692406,-0.1284556,-0.19783477
0.016414717,-0.13020766,-0.1526883,0.064036466,0.120752595,-0.11687701,-0.13654065,-0.13650957,-0.15384404,-0.08887761,-0.081421725,-0.14522381
-0.028300973,-0.120936885,-0.15793449,0.085692465,0.11435012,-0.12749675,-0.10125318,-0.09912702,-0.11540667,-0.08750243,-0.07937598,-0.113813184
-0.035885163,-0.11879774,-0.13481098,0.08451615,0.103923574,-0.111104205,-0.07059121,-0.07549061,-0.07991662,-0.057469018,-0.057466634,-0.0762117
-0.07121493,-0.10001795,-0.09499486,0.10445956,0.0376908,-0.096415974,-0.038209897,-0.047859333,-0.09914015,-0.07305912,-0.08064452,-0.09709832
0.020710204,-0.047838707,-0.05633595,0.023049083,0.08477686,-0.03004819,-0.07045723,-0.016301243,-0.070526496,-0.06158226,-0.029967213,-0.05491934
0.06309435,-0.021333197,-0.06428814,-0.013358358,0.13940038,0.008084681,-0.118651696,-0.034740902,-0.029364705,-0.037989102,-0.039001808,-0.06425658
0.075591974,-0.08534468,-0.12840208,0.014935815,0.2002848,-0.06910088,-0.14519256,-0.12078994,-0.049777426,-0.057547808,-0.057678603,-0.11955892
0.08368056,-0.12521774,-0.21433647,0.01735288,0.2414466,-0.122681186,-0.08121808,-0.07714412,-0.14778301,-0.056606162,-0.08236227,-0.13504793
0.14264777,-0.059025083,-0.17156008,-0.007648061,0.22893219,-0.12311075,-0.058041543,-0.10341046,-0.0951336,-0.113083564,-0.042055175,-0.05949959
0.021716882,-0.084424086,-0.23774998,0.037217513,0.21531588,-0.23714615,-0.022880638,-0.018447606,-0.023307111,-0.089183465,-0.05949542,-0.055293564
0.039366543,-0.17076184,-0.31031987,0.08027917,0.10211192,-0.27216128,0.016773518,-0.12176942,-0.20539533,-0.12959018,-0.12059133,-0.08797312
0.28357643,-0.06323801,-0.21821912,0.037395153,0.23421647,-0.20598176,0.484704,0.5121815,0.4067943,0.10408627,0.05197119,0.045580845
0.67722905,0.9505145,0.8811952,-0.8448418,-0.24033052,0.9470711,-0.44333157,0.1578527,0.95893526,0.9710345,0.8475914,0.9041571
-0.13710493,-0.348112,-0.30682668,0.2058413,0.0064357473,-0.29651234,-0.38351807,-0.3409615,-0.13096389,0.048314404,-0.045782313,-0.052419174
-0.0008397002,-0.14476387,-0.30007118,0.11441533,0.14596263,-0.18278599,-0.003695549,-0.012461832,-0.1114156,-0.18990782,-0.101513565,-0.11432034
-0.05986785,-0.11821971,-0.20945446,0.082085185,0.18553974,-0.168552,0.10268098,0.0041157436,-0.058195703,-0.10939923,-0.026026241,-0.060401943
-0.033544045,-0.17019537,-0.1995499,0.11777345,0.20084198,-0.21225156,0.10755803,0.006894687,-0.02868195,-0.07079316,-0.0669864,-0.042804617
-0.009819343,-0.09548263,-0.18294941,0.07818907,0.16881627,-0.16265158,0.06416204,0.027592465,0.029538022,-0.045204587,-0.010852307,0.002223603
-0.030038107,-0.12783447,-0.12909116,0.09136018,0.15511674,-0.13511005,0.054762274,0.009929369,-0.027164556,-0.06357753,-0.03563159,-0.058316864
0.045822516,-0.08684927,-0.13992104,0.0031114824,0.17737812,-0.10205562,0.042041525,0.06633106,0.012782956,-0.023620619,0.011707436,0.0068251407
0.049822643,-0.081531055,-0.12395693,0.0038744153,0.1663127,-0.08515999,0.03551469,0.11123491,0.02630504,-0.02019909,-0.012570022,-0.015489351
0.15064886,0.027644215,-0.14059305,-0.083521284,0.21853921,-0.057856597,0.02245534,0.14545761,0.11995082,0.033977423,0.048400395,0.06691356
0.20200929,0.07579185,-0.11278046,-0.14465404,0.24424319,-0.013517026,0.041829877,0.28183997,0.25546947,0.1326265,0.08381565,0.04869678
0.32041898,0.15047212,-0.030100675,-0.26376563,0.26061642,0.09909781,-0.031920895,0.2963553,0.32135364,0.19950962,0.1547828,0.11462962
0.3801285,0.19942722,-0.0016487832,-0.32762676,0.28650016,0.1330746,-0.023502057,0.32884386,0.39899698,0.25307202,0.2000677,0.1597707
0.35016003,0.16050142,-0.018917546,-0.26917267,0.2951646,0.05931022,0.012090826,0.24636742,0.3184568,0.20068914,0.17640278,0.15138529
0.19049588,0.026673099,-0.075372025,-0.09372916,0.18955098,-0.071152136,-0.010452934,0.10470249,0.104318745,0.032265887,0.04848431,0.04190706
0.11621424,-0.026420062,-0.15113345,-0.013862427,0.17957756,-0.12046739,-0.02431038,0.0028756894,0.00064675696,-0.06847881,0.0073669995,-0.035506938
0.022131054,-0.12850066,-0.1452588,0.056252968,0.17131443,-0.14884947,0.009327762,-0.06023451,-0.07283835,-0.052760907,-0.02758896,-0.06319918
-0.018457599,-0.13420932,-0.15864223,0.061691787,0.16261712,-0.14967035,-0.0010849652,-0.091078974,-0.12297278,-0.08502002,-0.053052925,-0.056561176
-0.08682747,-0.12248626,-0.08361299,0.10957397,0.04552904,-0.10836607,0.033429112,-0.12168094,-0.13751522,-0.11240632,-0.07636963,-0.06847466
-0.11041438,-0.131228,-0.110172994,0.1142658,0.042207945,-0.11732312,0.020986343,-0.12534493,-0.14408994,-0.11173186,-0.09602258,-0.07065247
-0.09226634,-0.11717283,-0.10822747,0.107421316,0.037608985,-0.09476681,-0.005599111,-0.121625476,-0.1423977,-0.09827216,-0.10432329,-0.075727515
-0.051271673,-0.09317832,-0.072158776,0.097494654,0.031915862,-0.10543071,-0.0077798436,-0.07467167,-0.10364061,-0.07954724,-0.085607596,-0.07083822
