0,1,2,3,4,5,6,7,8,9,10,11
-0.12537116,0.0015369965,0.0853339,0.0,-0.23990673,0.034240566,-0.0,-0.07282117,-0.0,-0.050762556,-0.0,-0.018748093
-0.28517735,0.16187385,0.4404738,-0.0,-0.89681584,0.27100897,-0.0,-0.06874602,-0.0,-0.03302339,-0.0,0.04158723
-0.21463151,0.10977443,0.3124845,-0.0,-0.6479412,0.18911634,-0.0,-0.06417354,-0.0,-0.04852221,-0.0,0.018678123
-0.22110641,0.13475552,0.35586667,-0.0,-0.7169495,0.22137025,-0.0,-0.076971054,-0.0,-0.033824537,-0.0,0.034426704
-0.26632392,0.0,0.30070832,0.0,-0.6796735,0.16621949,0.055114407,-0.0,-0.04768141,-0.061779313,-0.0,0.0
-0.2108327,0.0,0.3391136,-0.0,-0.68297666,0.21084045,-0.0013120293,-0.0,-0.03215113,-0.038229767,-0.0,0.0
-0.19792168,0.0,0.25791943,0.0,-0.5554243,0.15034765,0.019420916,-0.0,-0.051545706,-0.06317531,-0.0,0.0
-0.23794948,0.0,0.35156265,-0.0,-0.7261032,0.2135788,-0.09162326,-0.0,-0.036277555,-0.03214385,-0.0,0.0
-0.0,0.13827977,0.30704778,-0.0574794,-0.56968105,0.0,0.021467904,-0.054787714,-0.028143648,-0.04213064,-0.063454606,0.00061303255
-0.0,0.20526122,0.41319576,-0.104812615,-0.72414076,0.0,0.03808525,-0.05017823,0.00309204,-0.0047476836,0.0017713862,0.078180924
-0.0,0.20338067,0.3938478,-0.11144423,-0.6729679,0.0,-0.06649482,-0.0702788,-0.025124483,-0.026980514,-0.027501052,0.04523132
-0.0,0.15929566,0.32768255,-0.07830508,-0.58200026,0.0,-0.124048814,-0.0961275,0.0010754801,0.0032287147,0.0016748155,0.066015095
-0.24396789,0.027788235,0.20470467,0.054812044,-0.5227973,0.09718753,-0.0,-0.07867095,-0.06312601,-0.06590055,-0.0,0.001581128
-0.14217329,0.084597245,0.22584079,-0.017603878,-0.45704356,0.14007558,-0.0,-0.098248996,-0.017316978,-0.013418679,-0.0,0.04093426
-0.22155555,-0.02729616,0.10410333,0.087710254,-0.3582104,0.02372219,0.0,-0.041402172,-0.09046857,-0.09739841,-0.0,-0.041949198
-0.1533305,0.09442454,0.24811533,-0.021380097,-0.49865687,0.15445612,-0.0,-0.1025044,0.00021513493,0.012563365,-0.0,0.05528254
-0.0,-0.056363847,0.11653483,0.0,-0.45709595,0.011158807,0.5832468,0.32491413,-0.027471535,-0.10324485,-0.1570648,-0.0
0.0,0.8450286,0.8843492,-0.0,-0.6494732,0.8607994,0.21539539,0.83414936,0.84962225,0.8029491,0.7635846,0.0
0.0,0.7239463,0.91374105,-0.0,-1.0,0.7983672,-1.0,-0.29544306,0.41928262,0.5849093,0.62878203,0.0
-0.0,-0.17071436,-0.04334623,0.0,-0.25342375,-0.12118236,0.39230502,0.2738812,-0.17009616,-0.19596834,-0.21547315,-0.0
-0.051992785,0.12377389,0.22704242,-0.07361392,-0.3719179,0.16419175,0.14673322,0.14025116,0.08697561,0.06584546,0.0,0.053526152
-0.17755201,0.015196376,0.1410903,0.04394505,-0.3691826,0.06430479,0.22980133,0.022924058,-0.05850202,-0.068870924,-0.0,-0.03126866
-0.034456935,0.13744426,0.23623264,-0.08885854,-0.36943182,0.17583127,0.07599438,0.034301776,0.04997378,0.039604858,0.0,0.07581748
-0.07903225,0.07537204,0.16946504,-0.030459516,-0.31763408,0.112145476,0.17431495,0.0249233,-0.0052891877,-0.034433547,-0.0,0.0010884145
-0.05910484,0.0,0.23394519,-0.0,-0.0,0.16752103,0.07274995,0.0,0.06839803,0.050288424,0.0,0.0
-0.0852606,0.0,0.19063854,-0.0,-0.0,0.12712076,0.14307116,0.0,0.04532229,0.0069585564,-0.0,0.0
0.002249302,0.0,0.23179495,-0.0,-0.0,0.182187,0.032613404,0.0,0.13913767,0.100069575,0.0,0.0
0.055399958,0.0,0.25607172,-0.0,-0.0,0.21509728,0.12148147,0.0,0.17022276,0.10842948,0.0,0.0
0.16156083,0.28932858,0.34244853,-0.25970834,-0.33592114,0.31016552,0.04317303,0.30715808,0.3004091,0.23507655,0.19898617,0.24079223
0.24944818,0.33399326,0.35366374,-0.31871635,-0.2696104,0.3419337,0.06562835,0.36871603,0.31827193,0.24778144,0.2304106,0.28002456
0.2918807,0.36704046,0.3771279,-0.35562629,-0.26270324,0.37109122,-0.0019792083,0.32959813,0.33722028,0.29176855,0.2822916,0.32160038
0.17924275,0.25973788,0.28532344,-0.24338697,-0.23716292,0.26966298,0.12433178,0.21435009,0.17280386,0.15133734,0.15636466,0.23190205
0.0058952225,0.12642781,0.19246708,-0.09353756,-0.26942524,0.15218146,0.13469505,0.055244964,0.057862714,0.0,0.053641368,0.10712988
-0.026399286,0.036609486,0.07429372,-0.018307123,-0.13030285,0.05114802,0.1456036,-0.03315855,-0.04762036,-0.0,-0.07109879,0.00044491334
-0.086149074,0.024261896,0.094727986,0.009146014,-0.21703729,0.05175594,0.06766381,-0.083739065,-0.05513516,-0.0,-0.06294622,-0.00071572803
-0.15208195,-0.024030084,0.063436516,0.06442398,-0.2351264,0.009731857,0.1005996,-0.07601304,-0.08431606,-0.0,-0.09392328,-0.036488406
-0.1305081,-0.0020005899,0.08340615,0.0,-0.24110758,0.0,0.0,-0.0,-0.0,-0.0,-0.0,-0.0064256745
-0.11027373,-0.024009371,0.03584545,0.0,-0.15534313,-0.0,0.0,-0.0,-0.0,-0.0,-0.0,-0.038234603
-0.019866906,0.031922497,0.06271232,-0.0,-0.10898027,0.0,0.0,-0.0,-0.0,-0.0,-0.0,-0.013245154
-0.15451904,-0.02001755,0.07120182,0.0,-0.24750958,0.0,0.0,-0.0,-0.0,-0.0,-0.0,-0.03921355
-0.09482305,0.012981813,0.0,0.0,-0.20772259,0.04032038,0.030252293,-0.085252,-0.044776198,-0.04853652,-0.045678336,-0.01891383
-0.105790175,-0.019010056,0.0,0.0,-0.15791854,0.003959306,0.044111595,-0.104456335,-0.08466201,-0.07616684,-0.087022275,-0.059591495
-0.05872561,0.0065668495,0.0,0.0,-0.12541814,0.02292952,-0.0,-0.12934992,-0.07171238,-0.061286613,-0.06258857,-0.0452412
-0.033627562,-0.017496023,-0.0,0.0,-0.024596998,-0.012506252,0.0,-0.113490336,-0.0965801,-0.09227004,-0.11351736,-0.083018295
-0.06693236,-0.0,0.013962152,0.03468246,-0.08345473,-0.0066714035,-0.0,-0.0,-0.0843265,-0.0,-0.0,-0.065806314
-0.11534017,-0.0,0.0029304947,0.069195285,-0.11335083,-0.027724486,0.0,-0.0,-0.11274443,-0.0,-0.0,-0.10412467
-0.1116826,-0.0,0.029220833,0.054817762,-0.14701593,-0.0064501725,-0.0,-0.0,-0.08788335,-0.0,-0.0,-0.08061805
-0.113912836,-0.0,-0.0058096936,0.07257697,-0.09964384,-0.034040947,-0.0,-0.0,-0.10910483,-0.0,-0.0,-0.10794521
-0.12480973,-0.045356058,0.011936419,0.07138869,-0.13623883,-0.0,-0.0,-0.15069279,-0.08085368,-0.069977425,-0.08594154,-0.0
-0.06644889,-0.05388415,-0.03949012,0.059376646,-0.006063885,-0.0,0.0,-0.104712896,-0.103407525,-0.10045216,-0.10940811,-0.0
-0.057025813,-0.018772691,0.008664967,0.031391803,-0.06625227,-0.0,-0.0,-0.1279308,-0.07402427,-0.05898739,-0.06959038,-0.0
-0.13045596,-0.023164202,0.05048341,0.056817114,-0.19635291,0.0,0.0,-0.067568794,-0.0,-0.082662955,-0.08226316,-0.0
-0.0,0.0,0.12128578,-0.0,-0.19911687,0.08787242,0.0,-0.111716084,-0.0,-0.031396423,-0.0310018,-0.023215594
-0.0,0.0,0.045572564,-0.0,-0.07546314,0.032798916,0.0,-0.10401857,-0.0,-0.06320893,-0.06658186,-0.024834726
-0.0,-0.0,0.01592811,0.0,-0.099570535,-0.008432997,-0.0,-0.15154672,-0.0,-0.03783304,-0.046267867,-0.045393586
-0.0,-0.0,-0.13002577,0.0,0.08006206,-0.13042863,0.0,-0.093333654,-0.0,-0.103597045,-0.11917966,-0.12527522
-0.10258253,-0.09752996,-0.0833153,0.102040775,0.0,-0.09180437,-0.0,-0.0,-0.0,-0.0682959,-0.0,-0.0
-0.20602106,-0.15544033,-0.10504748,0.17575894,-0.0,-0.13580523,0.0,-0.0,-0.0,-0.10039156,-0.0,-0.0
-0.08625507,-0.08431771,-0.073834464,0.087596335,0.0,-0.08025563,-0.0,-0.0,-0.0,-0.05064821,-0.0,-0.0
0.047158215,-0.029241662,-0.076840244,0.0067016077,0.0,-0.04812052,0.0,0.0,0.0,0.02787271,-0.0,-0.0
0.93898374,0.93999934,0.8383529,-0.9696517,-0.30909866,0.9006054,-0.0,0.51928383,0.0,0.9859431,0.97862554,0.92750454
0.14649834,0.17180072,0.16966209,-0.1694021,-0.1019875,0.1711872,-0.0,-0.33342612,0.0,0.15519467,0.18996504,0.19530435
-0.057135716,-0.20774572,-0.28491116,0.16795439,0.3524077,-0.23802537,0.0,0.32778382,-0.0,-0.13543412,-0.15804286,-0.19341601
-0.0019539832,-0.0015849541,-0.0012723213,0.0016506129,0.00012683305,-0.0017409986,0.0,-0.051771425,-0.0,-0.016651232,-0.032863505,-0.059724044
-0.0301498,-0.068706185,-0.08673879,0.0,0.09480423,-0.0757025,0.0,0.010810804,-0.0,-0.0,-0.07916938,-0.1030508
-0.033915266,-0.011228485,0.0050077327,0.0,-0.040637784,-0.0046833423,-0.0,-0.09074171,-0.0,-0.0,-0.03596135,-0.052267775
0.012542898,-0.03232147,-0.058538247,0.0,0.0956127,-0.04253645,0.0,0.005861069,-0.0,-0.0,-0.048553612,-0.065447785
-0.013536357,-0.006531918,-0.001196143,0.0,-0.012083492,-0.0047944263,-0.0,-0.033270713,0.0,-0.0,-0.023354465,-0.03696864
-0.026653895,-0.0183948,-0.0,0.021633778,-0.010761367,-0.0,0.0,0.070433944,0.0,0.013490668,-0.0019355942,-0.027030714
0.0584055,0.036576673,0.0,-0.04503746,0.028880721,0.0,-0.0,0.099067844,0.0,0.061139543,0.043611076,0.0195389
0.19410536,0.10203424,0.0,-0.13359903,0.14076893,0.0,-0.0,0.26061073,0.0,0.12511784,0.10908805,0.07110973
0.25880033,0.18801916,0.0,-0.21534503,0.07318312,0.0,-0.0,0.31774387,0.0,0.2017016,0.1898194,0.16521859
0.44123873,0.0,0.11707137,-0.32668778,0.24922489,0.20624937,-0.0,0.3828101,0.0,0.24648112,0.25523,0.22882172
0.37383288,0.0,0.10987092,-0.28186727,0.19559772,0.18333456,-0.0,0.2737825,0.0,0.21760891,0.2391741,0.21562614
0.17149802,0.0,0.026349068,-0.118274026,0.12304911,0.06512451,-0.0,0.12924726,0.0,0.09064793,0.1112423,0.10612832
0.045498226,-0.0,-0.07092582,0.004974892,0.14328322,-0.04364743,-0.0,-0.046373907,-0.0,-0.02483518,-0.0075967307,-0.025886618
-0.0,-0.09847671,-0.11628309,0.0,0.0,-0.10559936,0.0,-0.0,-0.0,-0.0,-0.06493587,-0.078159586
-0.0,-0.10137967,-0.12927452,0.0,0.0,-0.11209229,-0.0,-0.0,-0.0,-0.0,-0.08931569,-0.10782325
-0.0,-0.1217125,-0.14555791,0.0,0.0,-0.13127066,-0.0,-0.0,-0.0,-0.0,-0.08794708,-0.106350385
-0.0,-0.10546933,-0.12367776,0.0,0.0,-0.112468995,-0.0,-0.0,-0.0,-0.0,-0.08461698,-0.11289293
-0.083729625,-0.11697722,-0.0,0.0,0.0,-0.120822206,-0.0,-0.09629473,-0.0,-0.07919099,-0.07423312,-0.10257014
-0.044318896,-0.09713985,-0.0,0.0,0.0,-0.10689364,-0.0,-0.12540169,-0.0,-0.09167377,-0.08481822,-0.10513813
-0.03846844,-0.10988584,-0.0,0.0,0.0,-0.12399435,-0.0,-0.0931599,-0.0,-0.07960922,-0.06507204,-0.08748343
-0.001952755,-0.10411336,-0.0,0.0,0.0,-0.12611942,-0.0,-0.12356198,-0.0,-0.09458983,-0.070206575,-0.094778456
-0.037773725,-0.12402692,-0.16771095,0.10122496,0.0,-0.0,-0.0,-0.117108464,-0.0,-0.07996309,-0.07334963,-0.09779294
-0.1330974,-0.15371782,-0.15089072,0.15213683,0.0,-0.0,-0.0,-0.1476683,-0.0,-0.10280283,-0.092370674,-0.12664966
-0.08729301,-0.16221328,-0.19408777,0.14428216,0.0,-0.0,-0.0,-0.13231507,-0.0,-0.087810464,-0.075168304,-0.12044712
-0.18775702,-0.21252182,-0.20581438,0.21205561,0.0,-0.0,-0.0,-0.16492166,-0.0,-0.106742315,-0.0906594,-0.13723606
-0.0,-0.18077597,-0.20569083,0.1660817,0.0,-0.19083068,-0.0,-0.13268688,-0.0,-0.0,-0.0,-0.11784139
-0.0,-0.19107606,-0.23366518,0.16794842,0.0,-0.20803364,-0.0,-0.17964058,-0.0,-0.0,-0.0,-0.1448106
0.0,-0.13270766,-0.24558344,0.07793703,0.0,-0.1773711,-0.0,-0.13888496,-0.0,-0.0,-0.0,-0.13200161
-0.0,-0.19038585,-0.2220305,0.17231667,0.0,-0.20287718,-0.0,-0.15974607,-0.0,-0.0,-0.0,-0.1405187
-0.10282762,-0.17774856,-0.20798673,0.16062245,0.0,-0.18950446,-0.0,-0.14068775,-0.0,-0.087741606,-0.075345226,-0.0
-0.041657615,-0.15573096,-0.21474294,0.12570266,0.0,-0.17910035,-0.0,-0.13719463,-0.0,-0.10704997,-0.08971802,-0.0
0.0491294,-0.081346825,-0.1591723,0.04369104,0.0,-0.11179233,-0.0,-0.07525146,-0.0,-0.051517002,-0.03808367,-0.0
0.056144204,-0.08877076,-0.17493251,0.046915457,0.0,-0.122486115,-0.0,-0.15722176,-0.0,-0.08860074,-0.062121075,-0.0
0.13188829,-0.09200134,-0.23010735,0.026033696,0.0,-0.14608738,-0.0,-0.11158886,-0.0,-0.049168855,-0.022088587,-0.05342037
-0.057030477,-0.22480379,-0.31131315,0.1803286,0.0,-0.25818485,-0.0,-0.14836946,-0.0,-0.12139885,-0.10627947,-0.14535749
0.06989291,-0.19753507,-0.35326883,0.12228079,0.0,-0.25785646,-0.0,-0.12393564,-0.0,-0.072320394,-0.06604742,-0.10523931
-0.056198593,-0.2825477,-0.40178657,0.22267622,0.0,-0.32904756,-0.0,-0.15821049,-0.0,-0.14492093,-0.13161342,-0.1683599
0.08797846,-0.18135199,-0.0,0.10512624,0.0,-0.24295604,-0.0,-0.10388947,-0.0,-0.0,-0.0,-0.058691863
-0.1238375,-0.32501355,-0.0,0.27395833,0.0,-0.36310297,0.0,0.053781327,-0.0,-0.0,-0.0,-0.26365778
0.679326,0.33100712,0.0,-0.44889316,0.0,0.22694822,0.0,0.978097,0.0,0.0,0.0,0.40610513
0.8058766,0.67004114,0.0,-0.73284954,0.0,0.6068156,-0.0,-0.07183967,0.0,0.0,0.0,0.7992421
-0.075466394,-0.34634385,-0.0,0.0,0.0,-0.0,0.0,-0.010645953,-0.0,-0.21820548,-0.1904897,-0.22069341
0.11537571,-0.18362151,-0.0,0.0,0.0,-0.0,0.0,0.20529477,0.0,-0.0,-0.031679075,-0.08236458
-0.012413359,-0.23760644,-0.0,0.0,0.0,-0.0,0.0,-0.064814195,-0.0,-0.0,-0.113827296,-0.15524276
0.05499607,-0.16045341,-0.0,0.0,0.0,-0.0,0.0,0.030533245,-0.0,-0.0,-0.021846307,-0.056748495
0.023524074,-0.0,-0.3441265,0.1464568,0.0,-0.26293293,0.0,-0.049958248,-0.0,-0.0,-0.069108255,-0.10004145
0.093746506,-0.0,-0.30339777,0.08390165,0.0,-0.21278907,0.0,0.040225137,0.0,0.0,0.0073229386,-0.026670657
0.048940957,-0.0,-0.30757302,0.11376928,0.0,-0.22778057,0.0,0.04159373,-0.0,-0.0,-0.019609896,-0.062054664
0.13304095,-0.0,-0.2625919,0.040792197,0.0,-0.17082843,-0.0,0.11991526,0.0,0.0,0.05190099,0.0047856383
0.22562294,-0.0759611,-0.0,-0.0,0.0,-0.0,-0.0,0.0,0.0,0.0,0.06774181,0.028393637
0.27226397,0.01399496,-0.0,-0.0,0.0,-0.0,-0.0,0.0,0.0,0.0,0.17975777,0.14730111
0.47583073,0.09503289,-0.0,-0.0,0.0,-0.0,-0.0,0.0,0.0,0.0,0.22962779,0.20470579
0.5618452,0.1456931,-0.0,-0.0,0.0,0.0,-0.0,0.0,0.0,0.0,0.2883767,0.27552837
0.39540756,0.03688768,-0.0,-0.14862008,0.0,-0.057785667,-0.0,0.24705063,0.0,0.0,0.18990868,0.17660648
0.24242155,-0.08374158,-0.0,-0.013527496,0.0,-0.16494633,-0.0,0.09940677,0.0,0.0,0.0807128,0.05178867
0.0838478,-0.19862762,-0.0,0.11885651,0.0,-0.2629216,-0.0,-0.033989027,-0.0,-0.0,-0.033787027,-0.064868
0.076355934,-0.20997983,-0.0,0.12898116,0.0,-0.27506453,-0.0,-0.055275362,-0.0,-0.0,-0.037919216,-0.07050509
0.008755247,-0.0,-0.0,0.0,0.0,-0.32057044,0.0,-0.09401519,-0.0,-0.0,-0.07270548,-0.10934747
-0.02055877,-0.0,-0.0,0.0,0.0,-0.30637807,0.0,-0.08234181,-0.0,-0.0,-0.041881982,-0.08799487
0.034145184,-0.0,-0.0,0.0,0.0,-0.31557634,-0.0,-0.06747225,-0.0,-0.0,-0.06514534,-0.102429494
0.055668127,-0.0,-0.0,0.0,0.0,-0.28687406,-0.0,-0.0561188,-0.0,-0.0,-0.043186598,-0.079042375
0.025673397,-0.23096581,-0.37587336,0.15948969,0.0,-0.28714818,-0.0,-0.06294294,-0.0,-0.0,-0.0,-0.104918405
0.026098154,-0.22357915,-0.36456373,0.15427803,0.0,-0.27860603,-0.0,-0.07578211,-0.0,-0.0,-0.0,-0.07761398
-0.06343347,-0.26256365,-0.36582562,0.20947228,0.0,-0.3026048,-0.0,-0.100814536,-0.0,-0.0,-0.0,-0.108265795
0.062720716,-0.23176526,-0.40162015,0.1485344,0.0,-0.29819772,-0.0,-0.09564882,-0.0,-0.0,-0.0,-0.092052385
-0.0,-0.28769392,-0.41747984,0.2219519,0.0,-0.0,0.0,-0.0,-0.0,-0.0,-0.088662,-0.0
-0.0,-0.2763812,-0.38998148,0.21852458,0.0,-0.0,-0.0,-0.0,-0.0,-0.0,-0.068165615,-0.0
-0.0,-0.2832417,-0.39984757,0.22402856,0.0,-0.0,-0.0,-0.0,-0.0,-0.0,-0.0920943,-0.0
0.0,-0.24677934,-0.0,0.16746472,0.0,-0.0,-0.0,-0.0,-0.0,-0.0,-0.06462979,-0.0
-0.0052205017,-0.2742189,-0.0,0.20043787,0.0,-0.0,-0.0,-0.0,-0.0,-0.0,-0.0,-0.1341047
-0.035462715,-0.28462723,-0.0,0.21751475,0.0,-0.0,-0.0,-0.0,-0.0,-0.0,-0.0,-0.103226
-0.07063116,-0.2995384,-0.0,0.23896725,0.0,-0.0,-0.0,-0.0,-0.0,-0.0,-0.0,-0.14905348
0.0026335053,-0.26901844,-0.0,0.19416091,0.0,-0.0,-0.0,-0.0,-0.0,-0.0,-0.0,-0.115324825
-0.0027166603,-0.2363416,-0.0,0.17226824,0.0,-0.0,0.0,-0.082769416,-0.0,-0.0,-0.081842944,-0.12984876
0.07293454,-0.16360718,-0.0,0.096236154,0.0,-0.0,0.0,-0.023376873,-0.0,-0.0,-0.026279738,-0.06540391
0.18689075,-0.16508819,-0.0,0.062088553,0.0,-0.0,-0.0,-0.104930885,-0.0,-0.0,-0.061222076,-0.09687701
0.1741156,-0.1545637,-0.0,0.058587234,0.0,-0.0,-0.0,-0.090744376,-0.0,-0.0,-0.011527246,-0.046707686
-0.0,-0.28905514,-0.0,0.0,0.0,-0.3509312,-0.0,-0.0,-0.0,-0.0,-0.0,-0.0
0.0,-0.24852961,-0.0,0.0,0.0,-0.32104716,-0.0,-0.0,-0.0,-0.0,-0.0,-0.0
-0.0,-0.32635215,-0.0,0.0,0.0,-0.3874071,-0.0,-0.0,-0.0,-0.0,-0.0,-0.0
0.0,-0.21006343,-0.0,0.0,0.0,-0.26575613,-0.0,-0.0,-0.0,-0.0,-0.0,-0.0
-0.0,-0.3652431,-0.0,0.31088996,0.0,-0.0,0.0,0.18077,-0.0,-0.0,-0.1952324,-0.2755847
0.0,0.42729747,0.0,-0.5721404,0.0,0.0,0.0,1.0,0.0,0.0,0.63318884,0.5499592
0.0,0.5508338,0.0,-0.6114434,0.0,0.0,-0.0,-0.17718418,0.0,0.0,0.7332837,0.71110284
-0.0,-0.41034728,-0.0,0.32363433,0.0,-0.0,0.0,0.07813371,-0.0,-0.0,-0.21722518,-0.25808042
0.1168191,-0.0,-0.0,0.08939515,0.0,-0.0,0.0,0.0,0.0,0.0,-0.0,-0.051234767
-0.046820138,-0.0,-0.0,0.19687009,0.0,-0.0,0.0,-0.0,-0.0,-0.0,-0.0,-0.1552042
0.08067698,-0.0,-0.0,0.08157294,0.0,-0.0,0.0,0.0,0.0,0.0,-0.0,-0.058433354
-0.024276309,-0.0,-0.0,0.15703559,0.0,-0.0,0.0,-0.0,-0.0,-0.0,-0.0,-0.116980486
0.029318431,-0.14927179,-0.0,0.0,0.0,-0.1893037,-0.0,0.028566366,0.0,0.0,0.0,-0.0
0.040143427,-0.15750057,-0.0,0.0,0.0,-0.2017766,0.0,0.04592463,-0.0,-0.0,-0.0,-0.0
0.13932566,-0.09487236,-0.0,0.0,0.0,-0.15141965,-0.0,0.1285617,0.0,0.0,0.0,0.0
0.18551911,-0.05987913,-0.0,-0.0,0.0,-0.12068432,0.0,0.22774567,0.0,0.0,0.0,0.0
0.32551154,0.0,-0.0,-0.13931939,0.0,-0.0,-0.0,0.35411078,0.0,0.0,0.1860005,0.0
0.46679974,0.0,-0.0,-0.21282955,0.0,-0.0,-0.0,0.40004885,0.0,0.0,0.21609944,0.0
0.6379338,0.0,-0.0,-0.33247504,0.0,0.0,-0.0,0.38691366,0.0,0.0,0.28201526,0.0
0.3612987,0.0,-0.0,-0.15005751,0.0,-0.0,-0.0,0.23663096,0.0,0.0,0.16489261,0.0
0.18324827,-0.0,-0.0,-0.0,0.0,-0.0,0.0,0.086309716,0.0,0.0,0.06518365,0.0
0.0403722,-0.0,-0.0,0.0,0.0,-0.0,0.0,-0.046152886,-0.0,-0.0,-0.050099347,-0.0
-0.010656753,-0.0,-0.0,0.0,0.0,-0.0,-0.0,-0.08613275,-0.0,-0.0,-0.060903344,-0.0
-0.07843803,-0.0,-0.0,0.0,0.0,-0.0,-0.0,-0.088140175,-0.0,-0.0,-0.08903161,-0.0
-0.04446899,-0.18354355,-0.0,0.0,0.0,-0.0,-0.0,-0.09266041,-0.0,-0.0,-0.0,-0.0
-0.015595819,-0.19187075,-0.0,0.0,0.0,-0.0,0.0,-0.11370821,-0.0,-0.0,-0.0,-0.0
0.043335907,-0.14049739,-0.0,0.0,0.0,-0.0,-0.0,-0.083656214,-0.0,-0.0,-0.0,-0.0
-0.03847677,-0.18843319,-0.0,0.0,0.0,-0.0,-0.0,-0.08790615,-0.0,-0.0,-0.0,-0.0
0.0,-0.14196062,-0.0,0.0,0.0,-0.0,-0.0,-0.074941315,-0.0,-0.0,-0.051469736,-0.0
-0.0,-0.19440395,-0.0,0.0,0.0,-0.0,-0.0,-0.11116931,-0.0,-0.0,-0.09422217,-0.0
-0.0,-0.18920931,-0.0,0.0,0.0,-0.0,-0.0,-0.11406651,-0.0,-0.0,-0.07640015,-0.0
-0.0,-0.20686369,-0.0,0.0,0.0,-0.0,0.0,-0.12949957,-0.0,-0.0,-0.108121,-0.0
-0.0037774933,-0.17673086,-0.0,0.0,0.0,-0.0,-0.0,-0.13109082,-0.0,-0.0,-0.078801446,-0.0
-0.049033135,-0.19378617,-0.0,0.0,0.0,-0.0,-0.0,-0.13497305,-0.0,-0.0,-0.11134304,-0.0
-0.03153288,-0.15687236,-0.0,0.0,0.0,-0.0,-0.0,-0.119721405,-0.0,-0.0,-0.07512103,-0.0
-0.043531947,-0.20094275,-0.0,0.0,0.0,-0.0,-0.0,-0.14055508,-0.0,-0.0,-0.103950895,-0.0
-0.07616378,-0.0,-0.0,0.0,0.0,-0.0,-0.0,-0.118582636,-0.0,-0.0,-0.0778375,-0.0
-0.045237917,-0.0,-0.0,0.0,0.0,-0.0,-0.0,-0.1312748,-0.0,-0.0,-0.11015462,-0.0
-0.0041578403,-0.0,-0.0,0.0,0.0,-0.0,-0.0,-0.122644804,-0.0,-0.0,-0.063961305,-0.0
-0.06549215,-0.0,-0.0,0.0,0.0,-0.0,0.0,-0.11360076,-0.0,-0.0,-0.09612689,-0.0
0.0,-0.09845784,-0.0,0.0,0.0,-0.0,0.0,-0.06648445,-0.0,-0.0,-0.036493786,-0.0
0.0,-0.10241409,-0.0,0.0,0.0,-0.0,-0.0,-0.1295598,-0.0,-0.0,-0.075329825,-0.0
0.0,-0.06019104,-0.0,0.0,0.0,-0.0,-0.0,-0.11495824,-0.0,-0.0,-0.018855637,-0.0
-0.0,-0.20234299,-0.0,0.0,0.0,-0.0,-0.0,-0.12479849,-0.0,-0.0,-0.11758974,-0.0
-0.03133042,-0.1727014,-0.0,0.0,0.0,-0.0,-0.0,-0.12992184,-0.0,-0.0,-0.0,-0.0
-0.1397338,-0.2541611,-0.0,0.0,0.0,-0.0,-0.0,-0.14469992,-0.0,-0.0,-0.0,-0.0
-0.0038631316,-0.1405353,-0.0,0.0,0.0,-0.0,-0.0,-0.117398426,-0.0,-0.0,-0.0,-0.0
-0.19169316,-0.28972298,-0.0,0.0,0.0,-0.0,0.0,0.06638219,-0.0,-0.0,-0.0,-0.0
0.0,0.0,0.0,-0.0,0.0,0.0,0.0,0.99757195,0.0,0.0,0.5273227,0.0
0.0,0.0,0.0,-0.0,-0.0,0.0,-0.0,-0.096104875,0.0,0.0,0.7963679,0.0
-0.0,-0.0,-0.0,0.0,0.0,-0.0,0.0,-0.013702542,-0.0,-0.0,-0.18971719,-0.0
0.0,-0.0,-0.0,0.0,0.0,-0.0,0.0,0.19867411,0.0,0.0,-0.011259439,-0.0
-0.0,-0.15586299,-0.0,0.0,0.0,-0.0,0.0,-0.07238842,-0.0,-0.0,-0.10703881,-0.0
0.0,-0.085921586,-0.0,0.0,0.0,-0.0,0.0,0.010486144,-0.0,0.0,-0.021868037,-0.0
-0.0,-0.0,-0.0,0.0,0.0,-0.0,0.0,-0.053055253,-0.0,-0.0,-0.062822804,-0.0
0.0,-0.0,-0.0,0.0,0.0,-0.0,0.0,0.025225095,0.0,0.0,0.0038074818,-0.0
0.007693042,-0.0,-0.0,0.0,0.0,-0.0,0.040902738,0.015488481,-0.0,-0.0,-0.0,-0.0
0.047396258,-0.0,-0.0,0.0,0.0,-0.0,-0.039653476,0.10737481,0.0,0.0,0.0,0.0
0.12280481,0.0,-0.0,-0.0,0.0,-0.0,-0.10909567,0.17398018,0.0,0.0,0.0,0.0
0.3851214,0.0,-0.0,-0.0,0.0,0.0,-0.09424502,0.344273,0.0,0.0,0.0,0.0
0.4277146,0.0,0.0,-0.0,0.0,0.0,-0.0,0.0,0.0,0.0,0.0,0.0
0.5539502,0.0,0.0,-0.0,0.0,0.0,-0.0,0.0,0.0,0.0,0.0,0.0
0.38618535,0.0,-0.0,-0.0,0.0,0.0,-0.0,0.0,0.0,0.0,0.0,0.0
0.1667971,0.0,-0.0,-0.0,0.0,-0.0,0.0,0.0,0.0,0.0,0.0,0.0
0.05652936,-0.0,-0.0,0.0,0.0,-0.0,0.03431246,-0.0,-0.07475506,-0.0,-0.0289077,-0.0
-0.042948537,-0.0,-0.0,0.0,0.0,-0.0,0.084160894,-0.0,-0.083650455,-0.0,-0.041844,-0.0
-0.09672609,-0.0,-0.0,0.0,0.0,-0.0,0.08127986,-0.0,-0.10660741,-0.0,-0.06071103,-0.0
-0.051310122,-0.0,-0.0,0.0,0.0,-0.0,0.04670438,-0.0,-0.08144839,-0.0,-0.036537524,-0.0
-0.04050293,-0.0,-0.0,0.0,0.0,-0.0,0.0,-0.108753175,-0.098383,-0.0,-0.043432865,-0.0
-0.01016383,-0.0,-0.0,0.0,0.0,-0.0,-0.0,-0.06831078,-0.07522809,-0.0,-0.027085656,-0.0
-0.074126534,-0.0,-0.0,0.0,0.0,-0.0,0.0,-0.08999856,-0.08831578,-0.0,-0.05055483,-0.0
-0.06299683,-0.0,-0.0,0.0,0.0,-0.0,0.0,-0.060864724,-0.069803305,-0.0,-0.037627187,-0.0
0.00029461592,-0.0,-0.0,0.0,0.0,-0.0,-0.00889435,-0.0,-0.0,-0.0,-0.05663547,-0.0
-0.0144009,-0.0,-0.0,0.0,0.0,-0.0,0.017631698,-0.0,-0.0,-0.0,-0.05378333,-0.0
-0.07509076,-0.0,-0.0,0.0,0.0,-0.0,-0.005105148,-0.0,-0.0,-0.0,-0.07560788,-0.0
-0.032532066,-0.0,-0.0,0.0,0.0,-0.0,0.010585,-0.0,-0.0,-0.0,-0.06249143,-0.0
-0.0,-0.0,-0.0,0.0,0.0,-0.0,-0.03202943,-0.14739063,-0.0,-0.0,-0.073689625,-0.0
-0.0,-0.0,-0.0,0.0,0.0,-0.0,0.018658593,-0.1081941,-0.0,-0.0,-0.06832545,-0.0
-0.0,-0.0,-0.0,0.0,0.0,-0.0,0.012365356,-0.12546901,-0.0,-0.0,-0.068721786,-0.0
-0.0,-0.0,-0.0,0.0,0.0,-0.0,-0.015171385,-0.11582053,-0.0,-0.0,-0.06911243,-0.0
-0.0,-0.0,-0.0,0.0,0.0,-0.0,-0.060165294,-0.15876679,-0.11000541,-0.0,-0.0,-0.0
-0.0,-0.0,-0.0,0.0,0.0,-0.0,0.01854005,-0.089412324,-0.09185603,-0.0,-0.0,-0.0
-0.0,-0.0,-0.0,0.0,-0.0,-0.0,-0.04614331,-0.0,-0.10264981,-0.0,-0.0,-0.0
-0.0,-0.0,-0.0,0.0,0.0,-0.0,0.07654607,-0.0,-0.07088013,-0.0,-0.0,-0.0
0.03665139,0.0,0.0,-0.0,0.0,0.0,-0.0,-0.0,-0.08232373,-0.0,-0.0,-0.0
0.05576495,0.0,-0.0,-0.0,0.0,-0.0,-0.0,-0.0,-0.069275476,-0.0,-0.0,0.0
-0.035350658,-0.0,-0.0,0.0,0.0,-0.0,-0.0,-0.0,-0.09779274,-0.0,-0.0,-0.0
-0.07948947,-0.0,-0.0,0.0,0.0,-0.0,-0.0,-0.0,-0.096749336,-0.0,-0.0,-0.0
-0.013143686,-0.0,-0.0,0.0,0.0,-0.0,0.0,-0.0,-0.0,-0.0,-0.09022787,-0.0
-0.027299343,-0.0,-0.0,0.0,0.0,-0.0,0.0,-0.0,-0.0,-0.0,-0.058640383,-0.0
-0.13152966,-0.0,-0.0,0.0,0.0,-0.0,0.0,-0.0,-0.0,-0.0,-0.106462695,-0.0
0.20076978,0.0,-0.0,-0.0,0.0,0.0,0.0,0.0,0.0,0.0,0.10119148,0.0
0.0,0.0,0.0,-0.0,-0.23058881,0.0,-0.0,0.0,0.0,0.0,1.0,0.0
0.0,0.0,0.0,-0.0,-0.13807426,0.0,-0.0,-0.0,-0.0,0.0,0.08916731,0.0
-0.0,-0.0,-0.0,0.0,0.27012533,-0.0,0.0,0.0,-0.0,-0.0,-0.11301984,-0.0
-0.0,-0.0,0.0,0.0,-0.098108746,0.0,0.0,-0.0,-0.0,-0.0,-0.023112576,-0.0
-0.06195793,-0.0,-0.0,0.0,-0.005272241,-0.0,0.14208978,0.0,-0.0,-0.0,-0.053028796,-0.0
-0.08460363,0.0,0.0,0.0,-0.17183,0.0,0.009328248,-0.0,-0.0,-0.0,-0.014004907,-0.0
-0.024769904,-0.0,-0.0,0.0,-0.023615696,-0.0,0.13486318,0.0,-0.0,-0.0,-0.0294662,-0.0
-0.029366806,0.0,0.0,-0.0,-0.11926087,0.0,0.028919863,-0.0,0.0,0.0,0.012494239,0.0
0.034897495,0.0,0.0,-0.0,-0.021759648,0.0,0.06574849,0.0,0.03344633,0.0,0.0,0.0
0.10879471,0.0,0.0,-0.0,0.003593641,0.0,-0.04128,0.0,0.09072202,0.0,0.0,0.0
0.2493486,0.0,0.0,-0.0,0.08668605,0.0,-0.044127695,0.0,0.16268922,0.0,0.0,0.0
0.37945333,0.0,0.0,-0.0,0.09302648,0.0,-0.12977989,0.0,0.24145079,0.0,0.0,0.0
0.0,0.0,0.0,-0.0,0.09113679,0.0,-0.10866977,0.0,0.24754219,0.0,0.2589048,0.0
0.0,0.0,0.0,-0.0,0.028437922,0.0,-0.11789094,0.0,0.21171738,0.0,0.2508179,0.0
0.0,0.0,0.0,-0.0,-0.03673583,0.0,0.009112774,0.0,0.07316939,0.0,0.121112995,0.0
0.0,0.0,0.0,-0.0,-0.10332494,0.0,0.02284544,-0.0,-0.030902209,0.0,0.017428566,0.0
-0.0,-0.0,0.0,0.0,-0.054954745,0.0,0.05594995,-0.0,-0.08588162,-0.0,-0.04028618,-0.0
-0.0,-0.0,0.0,0.0,-0.06033892,-0.0,-0.021936964,-0.0,-0.08929574,-0.0,-0.037109695,-0.0
-0.0,-0.0,0.0,0.0,-0.08461767,-0.0,0.007080949,-0.0,-0.09398532,-0.0,-0.04158331,-0.0
-0.0,0.0,0.0,0.0,-0.13284473,0.0,-0.03553729,-0.0,-0.081554726,-0.0,-0.02670648,-0.0
-0.09133971,-0.0,0.0,0.0,-0.15024696,0.0,0.008807857,-0.0,-0.0871786,-0.0,-0.050829105,-0.0
-0.055434976,0.0,0.0,0.0,-0.107439026,0.0,-0.053216428,-0.0,-0.070390716,-0.0,-0.033758927,-0.0
-0.023210937,0.0,0.0,0.0,-0.046202242,0.0,-0.019021587,-0.0,-0.07972276,-0.0,-0.042462237,-0.0
-0.08516732,-0.0,0.0,0.0,-0.1588965,0.0,-0.031741686,-0.0,-0.08384521,-0.0,-0.039862294,-0.0
-0.0,-0.0,0.0,0.0,-0.0,-0.0,0.0,-0.0,-0.0,-0.0,-0.0,-0.0
-0.0,-0.0,0.0,0.0,-0.0,0.0,-0.0,-0.0,-0.0,-0.0,-0.0,-0.0
-0.0,-0.0,0.0,0.0,-0.0,-0.0,0.0,-0.0,-0.0,-0.07915735,-0.0,-0.0
-0.0,-0.0,0.0,0.0,-0.0,0.0,-0.0,-0.0,-0.0,-0.057116583,-0.0,-0.0
-0.0,-0.0,0.0,0.0,-0.14615422,-0.0,-0.0,-0.0,-0.0,-0.07927348,-0.07432694,-0.0
-0.0,-0.0,0.0,0.0,-0.16046447,-0.0,-0.0,-0.0,-0.0,-0.06068954,-0.055118993,-0.0
-0.0,-0.0,0.0,0.0,-0.13070267,-0.0,-0.0,-0.0,-0.0,-0.08002359,-0.07376219,-0.0
-0.0,-0.0,0.0,0.0,-0.16491021,0.0,-0.0,-0.0,-0.0,-0.056280576,-0.04852792,-0.0
-0.0,-0.0,0.0,0.0,-0.0,-0.0,-0.0,-0.0,-0.0,-0.08368732,-0.0,-0.0
-0.0,-0.0,0.0,0.0,-0.0,0.0,-0.0,-0.0,-0.0,-0.05116106,-0.0,-0.0
-0.0,0.0,0.0,0.0,-0.0,0.0,0.0,-0.0,-0.0,-0.06154438,-0.0,-0.0
-0.0,0.0,0.0,-0.0,-0.0,0.0,-0.0,-0.0,-0.0,-0.026025308,-0.0,-0.0
0.0,0.0,0.0,-0.0,-0.0,0.0,-0.07890077,-0.0,-0.0804629,-0.055038545,-0.045670517,-0.0
-0.0,0.0,0.0,-0.0,-0.0,0.0,-0.14787057,-0.0,-0.05404103,-0.02219688,-0.012097937,-0.0
-0.0,-0.0,-0.0,0.0,-0.0,-0.0,-0.03030853,-0.0,-0.11839321,-0.09591023,-0.092991635,-0.0
-0.0,-0.0,0.0,0.0,-0.0,0.0,-0.12452058,-0.0,-0.075066246,-0.05085805,-0.04991938,-0.0
-0.0,-0.0,-0.0,0.0,-0.19127555,-0.0,0.0,-0.0,-0.13282245,-0.11720793,-0.11433307,-0.0
-0.0,-0.0,0.0,0.0,-0.2643658,0.0,-0.0,-0.0,-0.05527964,-0.032391727,-0.0332169,-0.0
-0.0,-0.0,-0.0,0.0,-0.13625045,-0.0,0.0,0.0,-0.03324131,-0.09737774,-0.1221924,-0.0
0.0,0.0,0.0,-0.0,-0.22660993,0.0,-0.0,0.0,0.9072479,0.8870945,0.8683759,0.0
0.0,0.0,0.0,-0.0,-0.0,0.0,-0.0,-0.0,0.26639625,0.39202043,0.454581,0.0
-0.0,-0.0,-0.0,0.0,0.0,-0.0,0.0,0.0,-0.21120687,-0.20170899,-0.19276066,-0.0
-0.0,0.0,0.0,-0.0,-0.0,0.0,0.0,0.0,0.025639124,0.021349486,0.00998496,-0.0
-0.0,-0.0,0.0,0.0,-0.0,0.0,0.0,-0.0,-0.09162002,-0.096981004,-0.09610721,-0.0
-0.0,0.0,0.0,-0.0,-0.30787253,0.0,-0.016277306,-0.0,0.0060726046,0.009008256,0.0,-0.0
-0.0,0.0,0.0,0.0,-0.35748628,0.0,0.04038488,-0.0,-0.053464096,-0.056200154,-0.0,-0.0
-0.0,0.0,0.0,-0.0,-0.3622003,0.0,-0.006195509,-0.0,0.029259695,0.023555148,0.0,0.0
-0.0,0.0,0.0,-0.0,-0.18624654,0.0,0.0044878856,0.0,0.015981682,-0.0001395195,0.0,0.0
0.0,0.0,0.0,-0.0,-0.30244213,0.0,-0.0,0.0,0.10002631,0.07483983,0.07225769,0.0
0.0,0.0,0.0,-0.0,-0.16657439,0.0,-0.0,0.0,0.13344917,0.09343822,0.09721496,0.0
0.0,0.0,0.0,-0.0,-0.122319125,0.0,-0.0,0.0,0.24391255,0.20586602,0.21039216,0.0
0.0,0.0,0.0,-0.0,-0.13538583,0.0,-0.0,0.0,0.25398204,0.21932958,0.23844428,0.0
0.0,0.0,0.35412505,-0.0,-0.0,0.0,-0.1371735,0.0,0.26775542,0.25319412,0.27831846,0.0
0.0,0.0,0.2725337,-0.0,-0.0,0.0,-0.04727205,0.0,0.116907805,0.1211719,0.1506493,0.0
0.0,0.0,0.20406936,-0.0,-0.0,0.0,-0.0037939313,0.0,0.017499782,0.031883817,0.05794999,0.0
-0.0,0.0,0.12761717,0.0,-0.0,0.0,0.08172611,-0.0,-0.08070045,-0.060451005,-0.029958194,-0.0
-0.0,0.0,0.0,-0.0,-0.0,0.0,-0.003323174,-0.0,-0.07100427,-0.05335302,-0.033937506,-0.0
-0.0,-0.0,0.0,0.0,-0.0,0.0,0.04005167,-0.0,-0.10520356,-0.08930598,-0.056777403,-0.0
-0.0,0.0,0.0,0.0,-0.0,0.0,0.013168938,-0.0,-0.070744276,-0.05704061,-0.027482409,-0.0
-0.0,0.0,0.0,0.0,-0.0,0.0,0.06747165,-0.0,-0.08308698,-0.07404945,-0.04878891,-0.0
-0.0,0.0,0.14672177,-0.0,-0.30330914,0.0,-0.0,-0.0,-0.0,-0.039194476,-0.029012345,-0.0
-0.0,0.0,0.15283881,0.0,-0.40567172,0.0,0.0,-0.0,-0.0,-0.065111466,-0.053316094,-0.0
-0.0,0.0,0.13635194,0.0,-0.33966106,0.0,-0.0,-0.0,-0.0,-0.044804372,-0.033670112,-0.0
-0.0,0.0,0.11534072,0.0,-0.32312807,0.0,0.0,-0.0,-0.0,-0.07889887,-0.06444949,-0.0
-0.0,0.0,0.0,0.0,-0.0,0.0,0.044773575,-0.0,-0.0,-0.054969087,-0.050322846,-0.0
-0.0,-0.0,0.0,0.0,-0.0,0.0,0.01626215,-0.0,-0.0,-0.08795282,-0.0760741,-0.0
-0.0,0.0,0.0,0.0,-0.0,0.0,-0.023193264,-0.0,-0.0,-0.06477484,-0.06064398,-0.0
-0.0,-0.0,0.0,0.0,-0.0,0.0,0.04705394,-0.0,-0.0,-0.09420285,-0.08844504,-0.0
-0.0,0.0,0.0,0.0,-0.26852232,0.0,0.029107245,-0.0,-0.0,-0.06219186,-0.058263205,-0.0
-0.0,-0.0,0.0,0.0,-0.24003522,0.0,0.06884528,-0.0,-0.0,-0.09083184,-0.08168268,-0.0
-0.0,0.0,0.0,0.0,-0.33523494,0.0,-0.018305898,-0.0,-0.0,-0.053696856,-0.048912093,-0.0
-0.0,-0.0,0.0,0.0,-0.32338536,0.0,0.024972225,-0.0,-0.0,-0.087447904,-0.069264285,-0.0
-0.0,-0.0,0.10077441,0.0,-0.29522958,0.0,-0.0,-0.0,-0.058994345,-0.044385813,-0.028894262,-0.0
-0.0,0.0,0.14939094,0.0,-0.3451317,0.0,0.0,-0.0,-0.07718765,-0.064603545,-0.052259296,-0.0
-0.0,0.0,0.19512758,-0.0,-0.32942092,0.0,0.0,-0.0,-0.02859054,-0.0139254965,-0.0024669867,0.0
-0.0,0.0,0.1826423,-0.0,-0.30516303,0.0,0.0,-0.0,-0.06362262,-0.05474936,-0.03870009,0.0
-0.0,0.0,0.1770718,-0.0,-0.32562312,0.0,-0.061147083,-0.0,-0.024104431,-0.019600328,-0.011579152,0.0
-0.0,-0.0,0.0544118,0.08476336,-0.24535704,-0.0,0.015099249,-0.0,-0.10313319,-0.103986606,-0.099609666,-0.0
-0.0,-0.0,0.07878595,0.036252953,-0.22456354,0.030826125,-0.06480958,-0.0,-0.04517522,-0.041955102,-0.04677252,-0.0
-0.0,-0.0,0.017166967,0.10583475,-0.19874805,-0.034538314,0.08759907,-0.0,-0.11225909,-0.118677214,-0.1203887,-0.0
-0.0,0.0,0.0,0.004934065,-0.23882334,0.06170312,-0.08295839,-0.0,-0.0,-0.0,-0.024658343,-0.0
-0.0,-0.0,0.0,0.13791591,-0.23241885,-0.05203443,0.70203316,0.0,-0.0,-0.0,-0.1589673,-0.0
0.0,0.0,0.0,-0.83858186,-0.33951625,0.7975566,0.14615208,0.0,0.0,0.0,0.8082919,0.0
0.0,0.0,0.0,-0.51534075,-0.68826854,0.62131983,-0.70121086,-0.0,0.0,0.0,0.5079532,0.0
-0.0,-0.0,-0.10087075,0.2004514,-0.0,-0.14388047,0.39711142,0.0,-0.20763636,-0.23261832,-0.22069971,-0.18266955
-0.0,0.0,0.16494684,-0.019206472,-0.0,0.1050567,0.13374038,0.0,0.057500366,0.009641702,-0.0061020786,0.017435407
-0.0,-0.0,0.11653831,0.056980047,-0.0,0.04469823,0.19117686,-0.0,-0.076452695,-0.11358831,-0.108142845,-0.069266856
-0.0,0.0,0.19534789,-0.024673326,-0.0,0.12494372,0.066312365,-0.0,0.03561457,0.00059517735,-0.000964377,0.02683427
-0.0,0.0,0.1365754,0.0065697613,-0.0,0.07694936,0.1295145,-0.0,-0.0234246,-0.066629924,-0.062250856,-0.0
-0.0,0.0,0.21181579,-0.060245834,-0.0,0.14956324,0.034140266,0.0,0.05244689,0.009277428,0.013569426,0.0
-0.0,0.0,0.17831533,-0.07414517,-0.0,0.13539255,0.082932994,0.0,0.027448492,-0.020242814,-0.010692912,0.0
-0.0,0.0,0.2534686,-0.101130135,-0.0,0.19052115,-0.0065438873,0.0,0.11560775,0.06360443,0.05978908,0.0
0.0,0.0,0.25069118,-0.1512364,-0.30672908,0.21018961,0.0,0.0,0.14484768,0.0,0.07757964,0.104187235
0.0,0.0,0.34903997,-0.2666066,-0.34091997,0.31645086,-0.0,0.0,0.25725323,0.0,0.18368559,0.21516019
0.0,0.0,0.36445525,-0.36692908,-0.21993123,0.36782962,-0.0,0.0,0.27511257,0.0,0.22673063,0.26550707
0.0,0.0,0.39887947,-0.3848433,-0.2671839,0.3955994,-0.0,0.0,0.28757867,0.0,0.2619409,0.30506724
0.0,0.0,0.31831452,-0.0,-0.0,0.30256927,0.0,0.0,0.15059404,0.10997764,0.14610259,0.0
0.0,0.0,0.22760995,-0.0,-0.0,0.19584416,0.0,0.0,0.04805289,0.020899817,0.052273054,0.0
-0.0,0.0,0.1224343,-0.0,-0.0,0.07776725,0.0,-0.0,-0.052652564,-0.074462146,-0.045095656,-0.0
-0.0,0.0,0.15872438,-0.0,-0.0,0.0999377,0.0,-0.0,-0.048988707,-0.066557355,-0.04872591,-0.0
-0.0,0.0,0.17700689,0.0,-0.45119038,0.08394526,0.0,-0.0,-0.07806266,-0.0,-0.0,-0.044819742
-0.0,0.0,0.18142556,-0.0,-0.3806342,0.10880278,0.0,-0.0,-0.04999577,-0.0,-0.0,-0.020285044
-0.0,0.0,0.15383168,0.0,-0.37745777,0.07700877,0.0,-0.0,-0.07056021,-0.0,-0.0,-0.033385813
-0.0,0.0,0.21033172,0.0,-0.4649913,0.11915281,-0.0,-0.0,-0.04351655,-0.0,-0.0,-0.0010650532
-0.0,0.0,0.16030696,0.010969135,-0.0,0.089048535,0.055413973,-0.0,-0.061291948,-0.09144293,-0.07217701,-0.03949407
-0.0,0.0,0.2255815,0.021437217,-0.0,0.122961834,-0.0041252677,-0.0,-0.044799756,-0.06368906,-0.04711902,-0.0206037
-0.0,0.0,0.16853897,0.026982905,-0.0,0.08727674,0.058021154,-0.0,-0.08356066,-0.096401274,-0.0895071,-0.05454691
-0.0,0.0,0.16644625,0.039937075,-0.0,0.08091359,0.03437941,-0.0,-0.060539585,-0.077744685,-0.06702707,-0.04163939
-0.0,0.0,0.0,0.030123502,-0.0,0.073318236,0.0,-0.0,-0.0,-0.11110239,-0.10508358,-0.08120178
-0.0,0.0,0.0,-0.022107454,-0.0,0.11197356,0.0,-0.0,-0.0,-0.09267868,-0.0,-0.070361726
-0.0,0.0,0.0,0.047045488,-0.0,0.04714645,0.0,-0.0,-0.0,-0.11621922,-0.0,-0.087845646
-0.0,0.017864555,0.0,0.04117715,-0.0,0.0673658,-0.0,-0.0,-0.0,-0.088424504,-0.0,-0.061667874
-0.0,0.0,0.0,0.0,-0.35561627,0.0,0.0,-0.0,-0.0,-0.0,-0.0,-0.07463878
-0.0,0.0,0.0,0.0,-0.38989666,0.0,0.0,-0.0,-0.0,-0.0,-0.0,-0.04217318
-0.0,-0.0,0.0,0.0,-0.28258172,0.0,0.0,-0.0,-0.0,-0.0,-0.0,-0.07396167
-0.0,0.0,0.0,0.0,-0.33716616,0.0,-0.0,-0.0,-0.0,-0.0,-0.0,-0.042629376
-0.0,0.066192016,0.2189017,0.0057540336,-0.47814238,0.0,0.097337656,-0.0,-0.05845347,-0.076283135,-0.0,-0.045347206
-0.0,0.1435869,0.2757598,-0.07993265,-0.4700042,0.0,-0.017140418,-0.0,-0.027662927,-0.04317046,-0.0,-0.019308632
-0.0,0.11812098,0.22846657,-0.065152355,-0.39110574,0.0,0.021247381,-0.0,-0.045992512,-0.06706203,-0.0,-0.0507424
-0.0,0.068516,0.19684467,-0.00813325,-0.40917948,0.0,-0.019610154,-0.0,-0.03509467,-0.043222874,-0.0,-0.021529103
-0.0,-0.019314611,0.055639025,0.053940173,-0.20037393,0.010152768,0.009166617,-0.0,-0.0,-0.11286958,-0.0,-0.089808404
-0.0,0.0015618494,0.12016347,0.05413488,-0.3400829,0.047864154,-0.13779555,-0.0,-0.0,-0.07525683,-0.0,-0.07277867
-0.0,-0.059804596,0.05967973,0.11413104,-0.30207187,-0.012905543,0.06346847,-0.0,-0.0,-0.11630675,-0.0,-0.103532135
-0.0,-0.0023867027,0.12531134,0.06184346,-0.36172238,0.04777664,-0.07951015,-0.0,-0.0,-0.071571,-0.0,-0.064502254
-0.0,0.03580878,0.10561839,-0.002649203,-0.22200115,0.062747985,0.86370915,0.0,0.118171446,-0.010003245,-0.0,-0.04138758
0.0,1.0,1.0,-0.9819661,-0.63850343,1.0,-0.26193944,0.0,1.0,0.98407245,0.0,0.92950517
0.0,0.3205192,0.4457833,-0.256598,-0.56293976,0.36943156,-0.53511447,-0.0,0.10864337,0.20006058,0.0,0.27028227
-0.0,-0.13050851,-0.0571439,0.16221176,-0.12546243,-0.101804934,0.49717164,0.0,-0.103072934,-0.16199638,-0.0,-0.16474791
-0.0,0.0,0.0,0.023016244,-0.4589979,0.0,0.0,0.0,0.011051369,-0.0,-0.0,-0.033056624
-0.0,0.0,0.0,0.052891977,-0.37153777,0.0,0.0,0.0,-0.038658306,-0.0,-0.0,-0.07056223
-0.0,0.0,0.0,-0.00058137183,-0.508104,0.0,0.0,-0.0,0.009542187,-0.0,-0.0,-0.001413998
-0.0,0.0,0.0,-0.00018672778,-0.38803068,0.0,0.0,0.0,0.002195185,-0.0,-0.0,-0.022608195
-0.0,0.09255529,0.0,-0.028841225,-0.44134384,0.14447916,0.04996543,-0.0,0.043312266,-0.0,-0.0,0.013954906
-0.0,0.12880953,0.0,-0.08112227,-0.36240372,0.16653496,0.10002283,0.0,0.06256721,0.0,0.0,0.0102173
-0.0,0.16365725,0.0,-0.115534775,-0.38360032,0.20134939,0.020332884,0.0,0.1188859,0.0,0.0,0.063216
0.0,0.2030178,0.0,-0.16144471,-0.3660659,0.23509152,0.046255574,0.0,0.19329575,0.0,0.0,0.1154762
0.0,0.31671286,0.38427117,-0.0,-0.39604962,0.0,-0.040120285,0.0,0.0,0.0,0.0,0.21214454
0.0,0.359687,0.37409666,-0.0,-0.27029273,0.0,-0.03225135,0.0,0.0,0.0,0.0,0.26928592
0.0,0.36615884,0.37771624,-0.0,-0.26613256,0.0,-0.04551058,0.0,0.0,0.0,0.0,0.2658674
0.0,0.23128548,0.3105597,-0.0,-0.37472636,0.0,0.07155671,0.0,0.0,0.0,0.0,0.14498991
-0.0,0.121624716,0.23728292,-0.065865695,-0.4099401,0.16671164,0.088352636,0.0,0.013825477,-0.012915102,0.0,0.03193465
-0.0,0.052205183,0.15714414,-0.0031193825,-0.33356577,0.09293297,0.08458917,-0.0,-0.051019806,-0.06535328,-0.0,-0.038963795
-0.0,0.00027739626,0.14699467,0.067341946,-0.41762584,0.057369266,0.033584997,-0.0,-0.070134304,-0.09496715,-0.0,-0.05219552
-0.0,0.017066574,0.12859099,0.035083223,-0.32794768,0.060522318,0.047390614,-0.0,-0.06374564,-0.0883257,-0.0,-0.039983068
-0.0,0.0,0.0,0.0,-0.0,0.07071118,0.0,-0.09602996,-0.0,-0.08979457,-0.0,-0.028484175
-0.0,0.0,0.0,0.0,-0.0,0.06431367,0.0,-0.057279393,-0.0,-0.080097444,-0.0,-0.040278703
-0.0,0.0,0.0,-0.0,-0.0,0.094551645,0.0,-0.08885238,-0.0,-0.07708494,-0.0,-0.048880488
-0.0,0.0,0.0,-0.0,-0.0,0.08823464,0.0,-0.05668759,-0.0,-0.070943065,-0.0,-0.02910449
-0.0,0.038916875,0.15733583,0.016067745,-0.3632857,0.08488816,-0.0,-0.0970302,-0.065564066,-0.07843439,-0.0,-0.0
-0.0,0.03935867,0.15030143,0.01275386,-0.34340847,0.082184196,0.0,-0.06267218,-0.06236696,-0.07855496,-0.0,-0.0
-0.0,0.0033920822,0.15571326,0.06725991,-0.43715236,0.06290581,-0.0,-0.117437504,-0.086279936,-0.094899945,-0.0,-0.0
-0.0,0.008076908,0.11938852,0.043469697,-0.32176718,0.051066745,-0.0,-0.106181905,-0.080445416,-0.091286816,-0.0,-0.0
-0.0,-0.0,0.10222959,0.050002445,-0.29649788,0.038555667,-0.0,-0.0,-0.09283115,-0.103954464,-0.0,-0.07624209
-0.0,0.0,0.10152519,0.03453356,-0.26957783,0.044539005,-0.0,-0.0,-0.07968239,-0.08902144,-0.0,-0.06570065
-0.0,-0.0,0.12004683,0.08405393,-0.38612443,0.03451418,-0.0,-0.0,-0.09522092,-0.10138499,-0.0,-0.08863813
-0.0,-0.0,0.11099582,0.07255045,-0.34785566,0.034407914,-0.0,-0.0,-0.07524408,-0.07989464,-0.0,-0.08168376
-0.0,-0.047402203,0.0,0.0,-0.32860047,0.001995089,-0.019781617,-0.121171296,-0.09728204,-0.104658276,-0.0,-0.10500583
-0.0,-0.037742738,0.0,0.0,-0.31890365,0.009600628,0.0022865601,-0.07700101,-0.074977495,-0.08247327,-0.0,-0.08291396
-0.0,-0.014130283,0.0,0.0,-0.35603204,0.0356091,0.017496476,-0.10242392,-0.081108615,-0.09326892,-0.0,-0.07315452
-0.0,0.06700225,0.0,-0.0,-0.3844275,0.11346945,0.08690013,-0.028487567,-0.034319967,-0.05177663,-0.0,-0.017590947
-0.0,0.0,0.20944586,-0.026931789,-0.0,0.13391374,0.043219496,-0.11668231,-0.0,-0.0,-0.0,-0.03993963
-0.0,0.0,0.15079919,-0.04052866,-0.0,0.10505141,-0.0036377115,-0.07071308,-0.0,-0.0,-0.0,-0.011004474
-0.0,-0.0,0.026142526,0.09162327,-0.0,-0.023704564,-0.04153265,-0.12747148,-0.0,-0.0,-0.0,-0.09152787
-0.0,-0.0,0.024275117,0.085693285,-0.0,-0.021536756,-0.07651401,-0.095686525,-0.0,-0.0,-0.0,-0.07034239
-0.0,-0.11963836,-0.0,0.15721442,-0.1611524,-0.086730696,-0.028500142,-0.122618616,-0.1255509,-0.12681024,-0.0,-0.11833944
-0.0,-0.026527893,0.0,0.04678934,-0.1066395,-0.009344167,-0.07596099,-0.074830234,-0.027937232,-0.027693303,-0.0,-0.038722284
-0.0,-0.1575298,-0.0,0.20047316,-0.18138655,-0.11855086,0.33444548,0.023618247,-0.123217456,-0.1669454,-0.0,-0.20137022
0.0,0.4609509,0.0,-0.46754366,-0.20472129,0.44883966,0.6674714,0.91664326,0.5935973,0.485619,0.0,0.3953005
0.0,0.0,0.9502108,-0.8371108,-0.75198793,0.91032237,-0.0,-0.10990311,0.0,0.0,0.0,0.0
-0.0,-0.0,-0.13730024,0.17051582,0.03285782,-0.15245079,0.0,0.011611443,-0.0,-0.0,-0.0,-0.0
-0.0,-0.0,-0.007475581,0.043932274,-0.049455572,-0.022518102,0.0,0.24209957,0.0,-0.0,-0.0,-0.0
-0.0,-0.0,0.052864216,0.12565738,-0.3049999,-0.022038596,0.0,-0.08086687,-0.0,-0.0,-0.0,-0.0
-0.0,-0.0015222902,0.06289012,0.0,-0.18222925,0.023231056,0.0,-0.0,0.013427706,-0.015079131,-0.0,-0.0
-0.0,-0.04375624,0.06841647,0.0,-0.29156002,-0.00025324404,0.0,-0.0,-0.05057793,-0.077419624,-0.0,-0.0
-0.0,0.01987731,0.07995949,0.0,-0.18581836,0.04347406,0.0,0.0,0.035251077,-0.0029182471,-0.0,-0.0
-0.06473033,-0.0090494985,0.028737618,0.0,-0.10226709,0.0052821813,0.0,-0.0,0.006309628,-0.024631461,-0.0,-0.0
0.026269283,0.0816594,0.10910282,-0.067399465,-0.0,0.0,0.08847914,0.0,0.098914,0.0,0.0,0.03376134
-0.02827169,0.08726726,0.15404351,-0.0547161,-0.0,0.0,0.08766116,0.0,0.12104013,0.0,0.0,0.049795028
0.1465358,0.20443831,0.22068793,-0.19346635,-0.0,0.0,0.040728528,0.0,0.25026008,0.0,0.0,0.15440473
0.22313341,0.24396458,0.23120381,-0.24519521,-0.0,0.0,0.00016038348,0.0,0.27883518,0.0,0.0,0.20464076
0.0,0.0,0.32044876,-0.32207507,-0.19454144,0.32326043,-0.03703992,0.34400526,0.32362667,0.0,0.0,0.26885417
0.0,0.0,0.20666343,-0.2418204,-0.07240331,0.22278321,0.061953224,0.20626251,0.19410282,0.0,0.0,0.19257651
0.0,0.0,0.099590816,-0.093026064,-0.07281005,0.09739503,0.13084361,0.0901861,0.06878652,0.0,0.0,0.077358924
-0.0,-0.0,-0.022280255,0.04080071,-0.015841106,-0.030861715,0.15650535,-0.045225915,-0.05094502,-0.0,-0.0,-0.027601937
-0.07941991,-0.0,-0.03142134,0.06339575,-0.029471349,-0.044819757,0.09615415,-0.08612833,-0.06453765,-0.06939418,-0.0,-0.045462843
-0.19982265,-0.0,-0.053781517,0.1485738,-0.110847384,-0.09395656,0.091677,-0.113834016,-0.10073318,-0.10412822,-0.0,-0.093736224
-0.14216289,-0.0,-0.06679599,0.119343944,-0.038365614,-0.08894401,0.07718978,-0.09130114,-0.070053376,-0.07294106,-0.0,-0.0877163
-0.17631266,-0.0,-0.048658382,0.13112746,-0.09555896,-0.083666526,0.08444896,-0.10522841,-0.089292005,-0.091355175,-0.0,-0.09562656
-0.09629211,-0.07526762,-0.053301513,0.084618464,-0.013893948,-0.06612551,0.04674171,-0.076191,-0.06200276,-0.06461171,-0.0,-0.06800217
-0.13928194,-0.084760554,-0.0395964,0.10423157,-0.07433377,-0.06669907,0.035172958,-0.0852753,-0.08736191,-0.08896744,-0.0,-0.08909385
-0.10567597,-0.049545027,-0.0067811287,0.06771804,-0.088838235,-0.03283564,0.00024422794,-0.08729275,-0.063918546,-0.06397617,-0.0,-0.06915581
-0.14549944,-0.092244565,-0.04685344,0.11181346,-0.07018296,-0.07458376,0.0029800278,-0.11669695,-0.08945987,-0.087753244,-0.0,-0.08767853
-0.0949662,-0.09421934,-0.08339242,0.097822756,0.0,-0.08956524,-0.0058443514,-0.09687652,-0.075315684,-0.073101826,-0.0,-0.0
-0.09781277,-0.10186196,-0.093255155,0.104327045,0.0,-0.09828098,0.0020149932,-0.14173114,-0.102251954,-0.10494159,-0.0,-0.0
-0.15528308,-0.11054732,-0.068806686,0.1282581,-0.0,-0.09404875,-0.00621034,-0.12941603,-0.08382996,-0.08599527,-0.0,-0.0
-0.1377009,-0.123606205,-0.10103737,0.13214512,0.0,-0.11450926,0.00029256791,-0.14635871,-0.11456199,-0.111784555,-0.0,-0.0
-0.090173244,-0.09623351,-0.0,0.09807838,0.0,-0.0,-0.0,-0.12575652,-0.09021379,-0.089357674,-0.0,-0.10423754
-0.120075144,-0.12562141,-0.0,0.12826161,0.0,-0.0,-0.0,-0.1671832,-0.11601159,-0.11431631,-0.0,-0.123485714
-0.13132867,-0.116920285,-0.0,0.12537861,0.0,-0.0,-0.0,-0.13315882,-0.08596096,-0.08803808,-0.0,-0.09623102
-0.15419002,-0.12950602,-0.0,0.1418022,-0.0,-0.0,-0.0,-0.16166416,-0.10857769,-0.10559785,-0.0,-0.112383164
-0.110717714,-0.09469151,-0.073964976,0.10289271,0.001547109,-0.08635328,0.0062927287,-0.0,-0.07485727,-0.0775246,-0.0,-0.08404791
-0.12099139,-0.09794145,-0.07228293,0.108423844,-0.009875713,-0.087943025,0.028754873,-0.0,-0.097234115,-0.09639035,-0.0,-0.08395398
-0.07488657,-0.009795252,0.034056198,0.029931212,-0.11874411,0.007048486,0.04369318,-0.0,-0.051825542,-0.053766176,-0.0,-0.03755752
-0.0020473078,0.020134289,0.0326843,-0.014095159,-0.049128354,0.024545413,-0.050916083,-0.0,-0.082492754,-0.07719806,-0.0,-0.039534517
-0.008227301,-0.010844938,-0.0,0.010418474,0.008804494,-0.0,-0.09374004,-0.0,-0.0,-0.042509966,-0.0,-0.0
-0.14545411,-0.13666685,-0.0,0.14397155,0.029249707,-0.0,-0.07599638,-0.0,-0.0,-0.10317499,-0.0,-0.0
-0.14974663,-0.14504647,-0.0,0.15179181,0.03996169,-0.0,-0.088790625,-0.0,-0.0,-0.07458242,-0.0,-0.0
-0.1631907,-0.18605755,-0.0,0.1855211,0.10414064,-0.0,-0.049932003,-0.0,-0.0,-0.13184929,-0.0,-0.0
-0.0605516,-0.11478356,-0.0,0.10196662,0.1408006,-0.12386352,-0.0,-0.082297854,-0.046761107,-0.04468901,-0.0,-0.056475833
-0.20239519,-0.20110165,-0.0,0.20841236,0.06333776,-0.19194041,0.0,-0.094160594,-0.14207214,-0.15981628,-0.0,-0.19189842
0.34919238,0.24507762,0.0,-0.2848934,0.11575538,0.20777091,0.0,0.8893052,0.44259536,0.33294952,0.0,0.22959815
0.8875896,0.90530926,0.0,-0.9287369,-0.3314454,0.8714396,-0.0,0.071961395,0.82031614,0.91220695,0.0,0.89724123
-0.08233404,-0.14068152,-0.16407177,0.0,0.0,-0.14992267,-0.1649828,-0.0,-0.1770499,-0.12501734,-0.0,-0.09619827
0.061997235,-0.11756982,-0.22375858,0.0,0.0,-0.15900059,0.31525537,0.0,-0.009320812,-0.050817866,-0.0,-0.103209384
-0.068228185,-0.07916813,-0.07793307,0.0,0.0,-0.07873345,0.06801567,-0.0,-0.07909541,-0.080570236,-0.0,-0.092382915
-0.11064596,-0.080547996,-0.051948957,0.0,-0.0,-0.06916096,0.08706152,0.0,-0.019143902,-0.039551243,-0.0,-0.06510749
-0.0,-0.08074893,-0.061282814,0.08826038,-0.0036222795,-0.07300719,-0.004879761,-0.10253432,-0.0,-0.06021916,-0.0,-0.07913621
-0.0,-0.049135584,-0.076180674,0.03565804,0.109711915,-0.059607055,0.04500745,0.010376052,0.0,-0.026938075,-0.0,-0.054509506
-0.0,-0.035321455,-0.03792901,0.033165075,0.029154109,-0.0365835,-0.008840619,-0.05004632,0.0,-0.023931872,-0.0,-0.028710969
-0.0,-0.011821164,-2.0807573e-05,0.017132027,-0.027674368,-0.007811084,0.035444085,0.08576571,0.0,0.028741505,0.0,0.012626527
0.0,0.03993976,0.0014680473,-0.0,0.0,0.0,-0.004215981,0.0,0.0,0.05311734,0.0,0.03547767
0.0,0.14192331,0.06900617,-0.0,0.0,0.0,0.013327571,0.0,0.0,0.14576261,0.0,0.11772571
0.0,0.2063659,0.10520092,-0.0,0.0,0.0,-0.05841974,0.0,0.0,0.20240137,0.0,0.18708113
0.0,0.26479667,0.16176075,-0.0,0.0,0.0,-0.06587572,0.0,0.0,0.24561517,0.0,0.25339454
0.34214228,0.21737804,0.0,-0.2630088,0.16305718,0.17578499,-0.046483032,0.2166214,0.0,0.17464195,0.0,0.0
0.13135773,0.06797704,0.0,-0.090242095,0.09632705,0.04842378,0.05182877,0.09532803,0.0,0.053525977,0.0,0.0
0.058759913,-0.031395912,-0.0,0.00503664,0.17975196,-0.05336,-0.00894411,-0.074550934,-0.0,-0.053654604,-0.0,-0.0
-0.067987055,-0.09965674,-0.0,0.093903944,0.092930175,-0.10336272,0.0014094893,-0.09609877,-0.0,-0.08391277,-0.0,-0.0
-0.11267285,-0.13056816,-0.12793203,0.12971118,0.07554256,-0.0,-0.032596506,-0.0,-0.0,-0.098722056,-0.0,-0.0
-0.061523937,-0.11668576,-0.14095241,0.10369005,0.14397962,-0.0,0.021156732,-0.0,-0.0,-0.089134686,-0.0,-0.0
-0.055325452,-0.10482385,-0.12651753,0.09312851,0.12945504,-0.0,-0.034855742,-0.0,-0.0,-0.08833597,-0.0,-0.0
-0.09904597,-0.10926561,-0.104119875,0.110018425,0.05458365,-0.0,-0.010611877,-0.0,-0.0,-0.076732926,-0.0,-0.0
0.0,-0.085057475,-0.13233091,0.06165694,0.190176,-0.0,-0.060396865,-0.138944,-0.0,-0.0,-0.0,-0.0
-0.0,-0.1048658,-0.07985426,0.11441587,-0.0035130726,-0.0,-0.040147275,-0.107841045,-0.0,-0.0,-0.0,-0.0
-0.0,-0.10282873,-0.09564438,0.104514726,0.044779636,-0.0,-0.08351595,-0.15321173,-0.0,-0.0,-0.0,-0.0
-0.0,-0.10912183,-0.14125608,0.09228727,0.16304901,-0.0,-0.03436249,-0.12132829,-0.0,-0.0,-0.0,-0.0
-0.14611594,-0.1290212,-0.0,0.13869584,0.0,-0.11893881,-0.07243086,-0.1726975,-0.11612373,-0.09662694,-0.0,-0.11015305
-0.09859732,-0.124342844,-0.0,0.120514624,0.0,-0.12574889,-0.037797756,-0.1411435,-0.1099166,-0.101509124,-0.0,-0.11235003
-0.15712468,-0.15418117,-0.0,0.16043685,0.0,-0.14678794,-0.08781629,-0.19209534,-0.12226833,-0.11006995,-0.0,-0.121013425
-0.13304377,-0.15618673,-0.0,0.15457399,0.0,-0.15519314,-0.042431097,-0.13611653,-0.11158617,-0.09931347,-0.0,-0.11325598
-0.122326985,-0.0,-0.15274788,0.0,0.0,-0.15132874,-0.09499166,-0.2064911,-0.12872674,-0.10624016,-0.0,-0.1307285
-0.08568603,-0.0,-0.17033048,0.0,0.0,-0.15518254,-0.072900236,-0.15772484,-0.1159802,-0.09480826,-0.0,-0.12461925
-0.08963678,-0.0,-0.16474839,0.0,0.0,-0.15236892,-0.13571598,-0.20121692,-0.13033302,-0.10794164,-0.0,-0.12919237
-0.084693804,-0.0,-0.16407482,0.0,0.0,-0.15024726,-0.058300484,-0.135129,-0.10716856,-0.09267486,-0.0,-0.11484973
-0.06897991,-0.107745826,-0.121845715,0.09952017,0.0,-0.0,-0.08230686,-0.0,-0.110395305,-0.089518614,-0.0,-0.10982706
-0.07394851,-0.072199404,-0.06349338,0.074907385,0.0,-0.0,0.059554413,-0.0,-0.07455109,-0.06066816,-0.0,-0.084768355
0.01941698,-0.015855078,-0.037271857,0.0053578084,0.0,-0.0,-0.12532881,-0.0,-0.08840154,-0.07129086,-0.0,-0.075974405
0.111241765,-0.022048457,-0.10808044,-0.01782075,0.0,-0.0,-0.07417958,-0.0,-0.06390019,-0.057919163,-0.0,-0.06741196
-0.04389381,-0.0,-0.1564209,0.0,0.1835479,-0.13391493,-0.10777242,-0.18893859,-0.0,-0.083213285,-0.0,-0.10718722
-0.04594181,-0.0,-0.19648099,0.0,0.23742121,-0.16572896,-0.11241674,-0.10409079,-0.0,-0.08297905,-0.0,-0.12280002
-0.11175692,-0.0,-0.21591906,0.0,0.20271973,-0.19794409,-0.16608319,-0.2196829,-0.0,-0.11056631,-0.0,-0.15494633
-0.0018572202,-0.0,-0.2368171,0.0,0.33625036,-0.1859622,-0.09406088,-0.09717733,-0.0,-0.0754149,-0.0,-0.11504312
-0.0,-0.18286602,-0.21092509,0.16645917,0.19791214,-0.19351216,-0.029019954,-0.18145159,-0.12638132,-0.12925014,-0.0,-0.0
0.0,0.068014205,-0.059053607,-0.12613744,0.31874743,0.018294377,0.7769777,0.8083252,0.2697454,0.17299983,0.0,0.0
0.0,0.910709,0.7742097,-0.95803845,-0.19112922,0.85736984,-0.71263254,0.31423664,0.90969443,0.9718922,0.0,0.0
-0.0,-0.051140588,-0.070306934,0.041801736,0.08691645,-0.058990452,-0.41471222,-0.28718045,-0.11166173,-0.020653004,0.0,0.0
0.0,-0.2052206,-0.31912816,0.14879575,0.45488927,-0.0,0.288555,0.0,-0.070968285,-0.09907422,-0.0,-0.15940352
-0.0,-0.110264264,-0.11403778,0.106728286,0.08050023,-0.0,-0.013983256,-0.0,-0.06592721,-0.06241364,-0.0,-0.09860247
-0.0,-0.14682916,-0.16334674,0.13650885,0.14036325,-0.0,0.055103682,-0.0,-0.055706978,-0.056408934,-0.0,-0.096080914
-0.0,-0.10715628,-0.13964233,0.090046935,0.16119942,-0.0,-0.017364807,-0.0,-0.044398427,-0.037055243,-0.0,-0.072894655
-0.012537464,-0.09679619,-0.14155698,0.0,0.0,-0.11412066,0.084369875,-0.01192456,-0.0061731245,-0.021236312,-0.0,-0.0
0.05614313,-0.062328134,-0.13409309,0.0,0.0,-0.09040608,-0.009045982,-0.033414405,0.01024768,0.0025012265,-0.0,-0.0
0.12324342,-0.028739195,-0.12630472,-0.0,0.0,-0.06667255,0.03682389,0.08666628,0.058971666,0.03268494,0.002847764,-0.0
0.17465356,0.008327192,-0.10299713,-0.0,0.0,-0.035209257,-0.060423918,0.11144902,0.112878434,0.081557,0.05151179,0.0
0.0,0.06893219,-0.04359716,-0.120174475,0.27594158,0.024491472,-0.03991027,0.2869087,0.20150384,0.0,0.0,0.10658245
0.0,0.16319934,0.019824944,-0.22730535,0.30371895,0.10678496,-0.1279688,0.3402438,0.27151984,0.0,0.0,0.18399918
0.0,0.2158324,0.040898133,-0.2935363,0.36022958,0.14705025,-0.08222818,0.3998871,0.30017114,0.0,0.0,0.25450084
0.0,0.199668,0.00818189,-0.28546068,0.4158872,0.12452807,-0.06404003,0.2611699,0.2353189,0.0,0.0,0.22812502
0.0,0.04380846,-0.0,-0.090941556,0.26638237,0.0028099108,0.04043018,0.10948227,0.0,0.091499515,0.0,0.0
0.0,-0.05509911,-0.0,0.0069446443,0.32552978,-0.09473246,0.06309244,-0.051150557,-0.0,0.00022056785,-0.0,-0.0
0.0,-0.12162117,-0.0,0.080153905,0.3175447,-0.15453745,0.03731733,-0.097590305,-0.0,-0.05420246,-0.0,-0.0
-0.0,-0.13105482,-0.0,0.09814118,0.27263537,-0.15665145,-0.0030419107,-0.13364151,-0.0,-0.059412982,-0.0,-0.0
-0.0,-0.13031054,-0.0,0.10127357,0.0,-0.15295592,0.018519418,-0.1100943,-0.086364955,-0.06629338,-0.06590937,-0.06768063
-0.0,-0.13082953,-0.0,0.09594843,0.0,-0.1581404,-0.0045454013,-0.12860711,-0.08307603,-0.05621542,-0.055103883,-0.06506205
-0.0,-0.12093008,-0.0,0.09616822,0.0,-0.14010641,0.016989753,-0.10593504,-0.08326327,-0.06423832,-0.06444601,-0.06353347
0.0,-0.14232397,-0.0,0.09951916,0.0,-0.17613085,-0.0035549807,-0.12617718,-0.08175895,-0.0536757,-0.05234277,-0.066595696
