0,1,2,3,4,5,6,7,8,9,10,11
-0.10455412,0.0558333,0.03268865,-0.005342671,-0.30646244,0.08156669,0.0014314642,-0.052189782,-0.027064746,-0.015295803,-0.04562177,-0.009742041
-0.32846615,0.197814,0.4159223,-0.09859601,-0.8584323,0.24423099,0.030377874,-0.07377091,-0.015108211,-0.014949013,-0.031731676,0.031734955
-0.2558579,0.1268749,0.39626366,-0.011244836,-0.6686878,0.17850961,0.026293594,-0.073895216,-0.043951996,-0.04789235,-0.052717645,0.014315402
-0.28125644,0.14667936,0.40124184,-0.05922783,-0.75103396,0.19905095,0.02503718,-0.093537934,-0.033394434,-0.038089614,-0.05423785,0.023191465
-0.251997,0.120519795,0.34024957,-0.02739891,-0.6733217,0.14690967,0.035001487,-0.10867494,-0.06812189,-0.076269016,-0.074942484,0.00041508672
-0.2437081,0.15245159,0.39136896,-0.033186078,-0.7312192,0.17711924,-0.009171765,-0.08497481,-0.034159716,-0.045781,-0.03597911,0.016886149
-0.21137495,0.09559463,0.3379914,0.00630427,-0.6185771,0.15129386,-0.0021766091,-0.04733875,-0.049576107,-0.058706976,-0.04268325,-0.02153871
-0.2850841,0.12457368,0.41065857,-0.039094243,-0.72624874,0.20817909,-0.03841687,-0.038287867,-0.023704678,-0.01187671,-0.025015589,0.005374797
-0.28654817,0.12345579,0.40190926,-0.059617843,-0.6356789,0.19544613,0.006127817,-0.030452073,-0.04700297,-0.039848346,-0.041465364,-0.004051186
-0.3162553,0.18035431,0.4213778,-0.12577681,-0.72655046,0.25222644,-0.044517282,-0.029846355,-0.0100475745,0.01736791,0.002699756,0.07861236
-0.26256827,0.18220519,0.40673265,-0.06982046,-0.6141891,0.18992876,-0.011709304,-0.04880687,-0.019904278,-0.028777132,0.0015330303,0.05488252
-0.22042169,0.1659651,0.3931037,-0.069542155,-0.5973517,0.17565826,-0.12377424,-0.076668665,0.01221301,0.011669344,0.032879684,0.09427905
-0.254516,0.09056529,0.20603095,0.03231437,-0.58767164,0.13509238,-0.0070170504,-0.07210285,-0.040382914,-0.0658115,-0.012509617,0.010552014
-0.20013665,0.09515334,0.23195076,-0.04523651,-0.54550827,0.16395953,-0.106312305,-0.11628911,-0.003250796,-0.014496414,-0.026388418,0.048300978
-0.20489213,-0.009000148,0.13589297,0.009616794,-0.5311554,0.10189512,0.0146064805,-0.06395646,-0.062957,-0.12308461,-0.096733354,-0.07098571
-0.19614813,0.14865384,0.39136842,-0.049432218,-0.58374196,0.22506498,0.017732728,-0.13827835,-0.027225262,0.0064191236,0.010008001,0.096307285
-0.23351136,-0.14670245,0.17751724,0.06345203,-0.5194978,-0.01002591,0.44133028,0.39140147,-0.045825876,-0.19386952,-0.21166055,-0.17926279
0.40857416,0.5340936,0.53885186,-0.75291896,-0.6294529,0.5444406,0.39388216,0.53031087,0.5536213,0.5485327,0.53013986,0.4473076
0.20739156,0.47993004,0.55491793,-0.69377375,-0.87347096,0.5065539,-0.8838416,-0.4508917,0.40291277,0.45020735,0.4651824,0.422412
-0.38464576,-0.19158158,0.115775794,0.39198288,-0.3176849,-0.13252905,0.40652382,0.10270986,-0.24312091,-0.2391433,-0.2342693,-0.24368097
-0.04798209,0.10819058,0.28085622,0.043857586,-0.3844973,0.14196117,0.16507052,0.08142365,0.037077796,0.030229505,-0.008309471,0.068258345
-0.2071366,0.027739767,0.2314442,0.05544062,-0.3479012,0.07034054,0.16639307,0.07117687,-0.055205457,-0.06402164,-0.09012527,-0.04887748
-0.09221336,0.1254084,0.2665512,-0.04050633,-0.418908,0.1706622,0.03873317,0.079348326,0.05826474,0.041053664,0.0070279576,0.043284148
-0.12540106,0.008570283,0.13832384,0.024264757,-0.34078264,0.08064146,0.12565354,0.06703708,-0.00018885732,-0.04277443,-0.020771705,0.0030741594
-0.05989666,0.094877794,0.21152842,-0.05655414,-0.41183823,0.13404319,0.018139966,0.0620498,0.080411404,0.043767605,0.026326234,0.059604302
-0.08772594,0.048790786,0.15860261,-0.05075869,-0.36670813,0.072065614,0.1381162,0.07612742,0.04853732,0.0004121661,-0.0048846216,0.014016127
0.002804093,0.17451517,0.24604675,-0.12982452,-0.37534806,0.18352953,0.059037883,0.14431234,0.15849206,0.116499215,0.07289066,0.086947314
0.04811672,0.19408424,0.26424554,-0.14990972,-0.3442345,0.17624523,0.122641325,0.20732646,0.18623151,0.12405609,0.08072265,0.10549394
0.18387909,0.3526924,0.39132535,-0.25380653,-0.35373694,0.28202465,0.066050045,0.364891,0.31619492,0.24622174,0.18278421,0.22629644
0.2636904,0.3948853,0.40105668,-0.3454895,-0.28394687,0.33799517,0.064153,0.40026996,0.35262552,0.24733093,0.20840363,0.25240722
0.28002682,0.39358592,0.40064624,-0.35808393,-0.28994742,0.39790842,0.028623657,0.39133596,0.32222214,0.28204268,0.25454625,0.309943
0.16629231,0.25546846,0.29873395,-0.22736365,-0.21593486,0.2509029,0.097729586,0.20201673,0.17505784,0.16664198,0.16895947,0.22146817
0.059169862,0.16382486,0.20773633,-0.11809383,-0.24568033,0.23318353,0.073478445,0.024698688,0.056251507,0.08267822,0.089737244,0.15606433
-0.073449515,0.034809794,0.07227522,0.00408674,-0.16858134,0.07448286,0.14437723,-0.040325966,-0.047781117,-0.021265788,-0.041467864,0.018931512
-0.09694261,0.019741176,0.11442296,0.034344543,-0.2337708,0.03906797,0.07763977,-0.08049786,-0.06823396,-0.047329653,-0.068438396,0.0058246492
-0.14086524,-0.016426755,0.08631844,0.07558544,-0.1880168,0.025153069,0.08777041,-0.09045006,-0.08919109,-0.07300731,-0.11036385,-0.03286578
-0.12771116,-0.0057301787,0.10772077,0.07576539,-0.22631997,0.046558432,0.045751676,-0.08614288,-0.07572966,-0.061889783,-0.08348482,-0.01632438
-0.123833805,-0.034376245,0.03986596,0.0895518,-0.15640518,0.020390812,0.09346263,-0.0664153,-0.073813826,-0.07418636,-0.09955991,-0.035814784
-0.077689126,0.009777383,0.06467075,0.05192514,-0.15596753,0.047050193,0.06826045,-0.06575106,-0.050703164,-0.047621682,-0.067956455,-0.020000562
-0.110301845,-0.012555863,0.058768783,0.0859553,-0.18077734,0.041155383,0.08828856,-0.07948302,-0.059094906,-0.07208818,-0.085517146,-0.041009985
-0.09627779,0.02569813,0.13293193,0.055078737,-0.22198588,0.068310075,0.042962674,-0.09785784,-0.05243872,-0.062157504,-0.06814265,-0.024027044
-0.10741047,-0.017114399,0.082619265,0.052268453,-0.16259407,0.035004374,0.05971495,-0.100746244,-0.065534204,-0.08195017,-0.09357823,-0.05386454
-0.06946842,0.0078092716,0.08925734,0.052936465,-0.13934267,0.041122064,0.004052587,-0.12780082,-0.06912604,-0.07016836,-0.0732973,-0.049173184
-0.09291049,-0.026425287,0.02961446,0.074567914,-0.06342101,-0.021120656,0.019648615,-0.11706553,-0.08332658,-0.1033219,-0.1094403,-0.07780299
-0.07668419,-0.017531596,0.045736004,0.06363694,-0.08257149,-0.0060499166,-0.0076473355,-0.13722494,-0.07912583,-0.084228985,-0.07930485,-0.06405595
-0.13592201,-0.04322897,0.015501092,0.087830976,-0.096358396,-0.025756413,0.019162603,-0.100624286,-0.091669574,-0.10845966,-0.11204234,-0.08701951
-0.13286118,-0.031948477,0.039462864,0.0632164,-0.15079616,0.0031709266,0.0038520503,-0.1675639,-0.08586046,-0.0863214,-0.087771565,-0.068430185
-0.14249867,-0.05974661,-0.002959362,0.08161619,-0.092293315,-0.025962299,0.034138612,-0.14166535,-0.08609022,-0.10054511,-0.10753443,-0.092112124
-0.0982798,-0.040711004,0.016568754,0.036808275,-0.10057555,0.0008325873,0.019934338,-0.15524547,-0.08497771,-0.09048151,-0.09689248,-0.08369787
-0.08700892,-0.072016016,-0.018253801,0.07298276,-0.011979305,-0.005872808,0.022600409,-0.12869021,-0.085128896,-0.1102929,-0.10903276,-0.09272282
-0.06728603,-0.033203907,0.01279469,0.05277411,-0.08940649,0.014794999,0.027918473,-0.13506034,-0.061940905,-0.08645152,-0.074420586,-0.06786304
-0.11449408,-0.019186795,0.04424462,0.05799484,-0.13673086,0.021976002,0.04722971,-0.10073202,-0.045815676,-0.0854933,-0.08940081,-0.062141918
-0.119873464,0.04189517,0.09450291,0.004587797,-0.21080655,0.07756429,0.029560504,-0.13175835,-0.025263773,-0.055344418,-0.049311396,-0.030106533
-0.10360087,0.018186172,0.03532614,-2.4080276e-05,-0.11847103,0.0348042,0.014038326,-0.09751118,-0.034030642,-0.06331112,-0.06974691,-0.043665044
-0.053508773,-0.0018591264,0.0142307505,-0.00721907,-0.08068316,0.008711415,-0.039574716,-0.12568519,-0.03858694,-0.06284726,-0.07170382,-0.0581694
-0.053012904,-0.08534034,-0.09555583,0.087828346,0.014193535,-0.09529022,-0.03672134,-0.07667533,-0.071536504,-0.09598866,-0.12496473,-0.12394643
-0.09347188,-0.093098335,-0.10131485,0.06762349,-0.029759439,-0.10103191,-0.051601462,-0.18029304,-0.07154348,-0.06954747,-0.0851441,-0.10508355
-0.124762535,-0.10212121,-0.13107707,0.13896875,0.04664818,-0.13072117,0.038335957,-0.039650176,-0.06936794,-0.09661916,-0.07689395,-0.082892366
-0.080902874,-0.064679116,-0.006969399,0.15695907,-0.044259403,-0.019438947,0.015199653,-0.14730866,-0.09196957,-0.055961195,-0.06739695,-0.065881
0.033192568,-0.046849232,-0.083379164,0.047506962,0.39132503,-0.047579516,0.13168065,0.39096084,0.21272272,0.05251317,-0.011111607,-0.0071155718
0.5583441,0.5803542,0.5272656,-0.9215275,-0.48237693,0.5501729,-0.56353045,0.4380578,0.43988457,0.5802865,0.5761705,0.560643
0.16824827,0.18115014,0.24102291,-0.1378613,-0.18345588,0.19634873,-0.70591664,-0.4898144,-0.10433705,0.21480303,0.20933652,0.29092243
-0.063632555,-0.17020729,-0.30814666,0.19473326,0.39924058,-0.23877698,-0.014760167,0.34223264,-0.13995637,-0.14492014,-0.15924875,-0.17276059
-0.024137575,-0.065091535,-0.023305636,0.08234378,-0.04504405,-0.028129904,0.0060902676,-0.05165663,-0.05546611,-0.017523343,-0.06586557,-0.088849
-0.064113,-0.123302504,-0.11520043,0.053693373,0.1275867,-0.13158791,0.07512989,0.039547283,-0.041712593,-0.07009807,-0.10614994,-0.11409947
-0.027594175,-0.04865051,-0.0139586795,0.05620775,-0.0636029,-0.026593314,0.07801147,-0.092712715,-0.027319575,-0.008236043,-0.040070616,-0.043807585
-0.03811211,-0.077411346,-0.08318102,0.05260566,0.05404922,-0.027893845,0.08221448,0.0020699769,-0.025247542,-0.031065121,-0.05332316,-0.058525838
-0.040978804,-0.026872423,-0.029802376,0.00686742,0.025439436,0.00013196468,0.07256789,-0.038864758,0.046731,-0.0034565788,-0.025459807,-0.04034926
-0.006021457,-0.034995057,-0.083720446,-0.0071768123,0.08674225,-0.017026508,0.08185861,0.019155513,0.07892861,0.0018226485,-0.012068967,-0.02905302
0.06191493,0.043391798,-0.012930507,-0.10136233,0.07751171,0.04795515,0.07662322,0.031967383,0.24600665,0.07839647,0.045554943,0.020029668
0.19248956,0.109545566,-0.031147564,-0.20923863,0.2032278,0.079066835,0.13461669,0.21327952,0.391156,0.12799731,0.101117186,0.066800386
0.37369338,0.24019045,0.07402012,-0.26122326,0.23052126,0.16206934,0.2095,0.32833225,0.3951425,0.24082063,0.22040582,0.1718098
0.39829943,0.28113562,0.081490695,-0.28862303,0.25427204,0.16888836,0.2144303,0.39642346,0.3992811,0.25846925,0.24173713,0.20455573
0.39241242,0.22702278,0.11425975,-0.21979308,0.23075648,0.1524283,0.14850312,0.30563644,0.3932743,0.22807735,0.22397321,0.19819604
0.19838983,0.096629195,0.013216233,-0.12333126,0.18285094,0.038521502,0.026837578,0.15171464,0.14904095,0.08730956,0.090926856,0.10037013
0.033916455,-0.01592713,-0.040992342,0.006819053,0.12907943,-0.06112958,-0.0064018387,-0.0535869,0.051291775,-0.031711493,-0.0111558875,-0.0062967897
-0.038950935,-0.091269664,-0.12579851,0.062349845,0.117923535,-0.12785177,-0.050664373,-0.07520744,-0.07912331,-0.08541023,-0.07130108,-0.078632414
-0.07957002,-0.111984596,-0.1403325,0.10515302,0.078916885,-0.13923518,-0.068598665,-0.13072059,-0.12422772,-0.090335965,-0.0993114,-0.1246639
-0.09218801,-0.11805493,-0.17447448,0.09735647,0.06981729,-0.15112211,-0.0667603,-0.12796827,-0.14763291,-0.09180303,-0.08508088,-0.12272974
-0.09091967,-0.11818758,-0.15668438,0.12249224,0.068511665,-0.12977712,-0.051832944,-0.14463483,-0.133486,-0.09176893,-0.07855152,-0.11520731
-0.083697215,-0.11606508,-0.16567229,0.094107375,0.066380344,-0.12802806,-0.055592265,-0.121621676,-0.13355139,-0.09053153,-0.08171515,-0.11385644
-0.057945922,-0.10653023,-0.15004733,0.104550846,0.055750914,-0.12024139,-0.052495427,-0.12167088,-0.14193174,-0.0870107,-0.07883153,-0.108419076
-0.023690261,-0.099500544,-0.16569403,0.07240973,0.0575037,-0.13367514,-0.042137038,-0.097933345,-0.13802174,-0.08501312,-0.07426846,-0.09793293
-0.04739504,-0.10335699,-0.16326608,0.10720485,0.051867984,-0.15382561,-0.06414235,-0.12258562,-0.14100416,-0.07996633,-0.067518115,-0.110711925
-0.034591697,-0.108472794,-0.19074224,0.07593684,0.037375793,-0.17437027,-0.07005973,-0.12965205,-0.13227977,-0.088137396,-0.06789929,-0.09397962
-0.10433511,-0.15332784,-0.19583662,0.13059612,0.019363903,-0.16559368,-0.08191033,-0.15199552,-0.15486903,-0.11075567,-0.08665925,-0.119378954
-0.10129921,-0.17147495,-0.19939552,0.12281651,0.0092953155,-0.1728919,-0.069328524,-0.12484873,-0.14961162,-0.100474246,-0.08279233,-0.10348677
-0.16234197,-0.20386092,-0.19425474,0.2015821,0.02807127,-0.19418575,-0.088264436,-0.16134734,-0.16049019,-0.106109634,-0.0991347,-0.12803228
-0.12846698,-0.18606707,-0.22200684,0.1741065,0.027509185,-0.20072088,-0.09310684,-0.12260475,-0.15717681,-0.09473701,-0.0936434,-0.12290421
-0.14636855,-0.20113213,-0.2300601,0.18870842,0.043243572,-0.20272073,-0.1040955,-0.17910542,-0.1497739,-0.08363024,-0.0880834,-0.13859995
-0.14093295,-0.18180585,-0.24304985,0.14541098,0.054603986,-0.21537016,-0.10772384,-0.16268656,-0.13287272,-0.082128495,-0.070947014,-0.11984774
-0.14928733,-0.2084457,-0.24446942,0.18307567,0.050796293,-0.23432225,-0.11419018,-0.17659497,-0.15237997,-0.11260491,-0.09395498,-0.15007174
-0.09134485,-0.17697386,-0.22182663,0.12856354,0.06616119,-0.21749127,-0.116386354,-0.1529644,-0.13115469,-0.097898155,-0.06811551,-0.1073261
-0.0717675,-0.15263212,-0.19194621,0.1335525,0.040872116,-0.18932241,-0.116100594,-0.16220409,-0.13255295,-0.098560825,-0.08004888,-0.1100254
0.018080946,-0.10045082,-0.16666576,0.050123524,0.053719465,-0.16917439,-0.13197125,-0.11930128,-0.11985966,-0.06129677,-0.03679036,-0.081506595
0.006574596,-0.11178389,-0.17913368,0.07243626,0.0719499,-0.18793464,-0.10918612,-0.14288586,-0.12699245,-0.08273304,-0.059086204,-0.11490735
0.062405776,-0.095915966,-0.18744424,0.018611755,0.08020517,-0.18954033,-0.12689656,-0.13884681,-0.14385842,-0.070774585,-0.038679544,-0.08399057
-0.03872573,-0.17467332,-0.300376,0.1344354,0.09883685,-0.29553884,-0.10136641,-0.16654651,-0.18025388,-0.114883296,-0.09521167,-0.14368096
0.07142235,-0.19072971,-0.32560456,0.100645766,0.11614387,-0.31857568,-0.13623852,-0.105808824,-0.15889147,-0.06879375,-0.058358,-0.11327585
-0.11622507,-0.2676125,-0.38452244,0.1829776,0.058906052,-0.38082156,-0.07450538,-0.16515076,-0.16494834,-0.09815459,-0.14711861,-0.18184516
0.031544827,-0.1994357,-0.39114642,0.08690629,0.048405338,-0.23894429,-0.13062578,-0.1034919,-0.11714084,-0.035144094,-0.046016477,-0.120114036
-0.12910923,-0.38933486,-0.36695418,0.33751515,-0.009903375,-0.4414863,0.08046562,0.030292688,-0.15146635,-0.22583567,-0.18482073,-0.35807556
0.47415352,0.41592416,0.051021017,-0.4965255,0.4081541,0.39205974,0.39756858,0.5491656,0.40480486,0.4063468,0.4271867,0.4118999
0.5210405,0.5043121,0.118283056,-0.75969684,0.40915644,0.4739908,-0.4167718,-0.10306184,0.07763817,0.3964645,0.41094008,0.5182823
-0.116839424,-0.22630385,-0.5316756,0.14905193,0.07255754,-0.37430853,-0.04017523,-0.1534248,-0.2644265,-0.34381986,-0.18695076,-0.14666577
0.052169837,-0.101456724,-0.4210959,0.060832575,0.13287336,-0.2645201,-0.014615181,0.041577347,-0.07405444,-0.03307554,0.050485034,-0.077724434
-0.036183737,-0.2103598,-0.3353219,0.15456966,0.032385495,-0.32363603,0.035818685,-0.0592921,-0.111850105,-0.102405384,-0.11639588,-0.17788032
-0.0055463044,-0.15054934,-0.31380326,0.105491936,0.13055232,-0.3136268,-0.026367333,-0.020149663,-0.06893069,-0.033330012,-0.042249132,-0.09076107
-0.014992515,-0.1659012,-0.324074,0.13334242,0.13161694,-0.32336277,-0.04109805,-0.023146607,-0.10376744,-0.05224991,-0.0851928,-0.12746151
0.057881407,-0.12006222,-0.31964767,0.093527265,0.21090011,-0.2694893,-0.041287065,0.022002244,-0.05011734,-0.027931249,-0.018436637,-0.054443087
0.093649805,-0.14090088,-0.2972532,0.09398133,0.16929008,-0.22826523,-0.025129033,0.008850999,-0.06165732,-0.024741607,-0.045149278,-0.053735185
0.09514091,-0.10593678,-0.27720153,0.038760606,0.20407577,-0.2149723,-0.014383188,0.09960332,-0.013951708,0.04121929,0.05305237,0.01721367
0.1614636,-0.07723289,-0.27526733,-0.024943303,0.18227397,-0.18350835,0.005991685,0.12611644,0.029293023,0.045600627,0.057807446,0.030539162
0.28489435,0.020163337,-0.24524331,-0.080395445,0.2941005,-0.096095726,0.028358692,0.2744278,0.07733048,0.16424066,0.17852584,0.16591181
0.40472057,0.0801482,-0.20526955,-0.14512198,0.32514003,-0.08227478,0.042759735,0.35258016,0.12303422,0.25691575,0.19270107,0.20050262
0.44865966,0.1513143,-0.18204802,-0.16872495,0.36897334,-0.06510816,0.04844176,0.2641039,0.14437762,0.25301343,0.23999204,0.2646644
0.4039974,0.08587904,-0.21123686,-0.10656906,0.2548434,-0.12857778,0.013319628,0.19960397,0.04952982,0.08388593,0.1445056,0.16527098
0.29176688,-0.034097113,-0.23145388,-0.0041248864,0.17879191,-0.18517037,-0.008604761,0.05748466,-0.0034972883,0.037535876,0.08983013,0.08203149
0.06320572,-0.1717927,-0.25116968,0.09857431,0.08454471,-0.28066978,-0.026807142,-0.036839377,-0.066273205,-0.043757554,-0.026316078,-0.05054071
0.08869839,-0.22654289,-0.27236554,0.14084835,0.07808774,-0.30304292,-0.03851686,-0.07683265,-0.057372767,-0.076466724,-0.046953104,-0.07132952
0.054782417,-0.29117355,-0.29563665,0.1468857,0.062591136,-0.33232972,-0.043383054,-0.09956941,-0.05047341,-0.099549584,-0.095505975,-0.11590955
0.04856857,-0.2503935,-0.3114076,0.1002582,0.05479017,-0.32177988,-0.043373387,-0.0875833,-0.04255135,-0.09247947,-0.053912412,-0.08097354
0.041782714,-0.26246658,-0.322771,0.097594894,0.0464528,-0.33005953,-0.04515219,-0.090880655,-0.042785436,-0.08673578,-0.080745004,-0.11000779
0.06345508,-0.2533994,-0.38329658,0.08672486,0.06391218,-0.32204968,-0.039682165,-0.05761322,-0.034455243,-0.07227365,-0.04922209,-0.08074983
0.009710602,-0.29903108,-0.41931233,0.1224177,0.06722141,-0.33792835,-0.048887737,-0.06926787,-0.025709625,-0.057435233,-0.067567654,-0.11220201
-0.0002516508,-0.24965513,-0.3907517,0.15326035,0.06048063,-0.3524587,-0.089356706,-0.08019999,-0.009662774,-0.059019234,-0.045516104,-0.08417179
-0.031793725,-0.2845232,-0.397552,0.19473083,0.07711999,-0.36423343,-0.12609129,-0.09568434,-0.0064069945,-0.056466177,-0.07593251,-0.11481265
0.002440865,-0.26450476,-0.38789725,0.18823647,0.101405635,-0.35115054,-0.11107793,-0.0922081,0.00078693015,-0.05971237,-0.05345558,-0.09877254
0.011366861,-0.2799475,-0.44878963,0.21364653,0.10915885,-0.41673592,-0.07097954,-0.08911616,-0.009884363,-0.06777837,-0.08485593,-0.1191766
0.027397957,-0.26330897,-0.42953372,0.23659566,0.11988504,-0.4056211,-0.023148485,-0.071889654,-0.01430834,-0.08165062,-0.049850535,-0.106288254
-0.023408249,-0.2854812,-0.37869474,0.22198783,0.06517914,-0.37313968,-0.006538119,-0.059692025,-0.024760429,-0.0804464,-0.06911764,-0.13484621
-0.029291563,-0.26045325,-0.14729011,0.19199976,0.067828774,-0.36802378,0.01406994,-0.06574925,-0.03569686,-0.08050112,-0.04571688,-0.12916996
-0.059272557,-0.3052114,-0.14573435,0.20211706,0.04116068,-0.33083966,0.032790344,-0.077654585,-0.040756196,-0.08530789,-0.086920075,-0.16124836
-0.067956954,-0.29321218,-0.11764479,0.20214061,0.0272674,-0.35864663,0.02023793,-0.06535292,-0.030644236,-0.091253996,-0.053279147,-0.12678185
-0.05270956,-0.29867327,-0.173107,0.22484401,-0.015134371,-0.38802359,0.0031725955,-0.07261734,-0.03630273,-0.07138298,-0.08280949,-0.14657117
0.0054404796,-0.24952295,-0.11906754,0.19473812,0.006248661,-0.39735538,0.009003545,-0.051544692,-0.013188909,-0.065478206,-0.044472102,-0.11384439
0.03734383,-0.25667095,-0.15839827,0.16287474,0.020357061,-0.33911923,0.0026619073,-0.050324332,-0.0031102796,-0.05853537,-0.06862213,-0.1421268
0.073680505,-0.18280615,-0.1733863,0.10233508,0.03351714,-0.28288358,-0.015942445,-0.025604969,0.0147063555,-0.04308984,-0.02337608,-0.058842734
0.10887535,-0.19309744,-0.19571482,0.08387034,0.044047266,-0.30616635,-0.00071191776,-0.053240307,0.008422473,-0.03903217,-0.041587405,-0.10872101
0.13991666,-0.1935984,-0.20979968,0.048562236,0.07887791,-0.33214104,-0.018602878,-0.0611365,0.018770814,-0.035009436,-0.011157676,-0.047214575
0.055086195,-0.26828513,-0.26727498,0.12375108,0.051735185,-0.4033875,-0.024701934,-0.06987506,-0.027571721,-0.06105529,-0.070288435,-0.12050085
0.08734307,-0.2695207,-0.26043847,0.0663721,0.020672059,-0.36801848,-0.016065288,-0.1059732,-0.034202047,-0.04930111,-0.031068396,-0.074485555
-0.062051017,-0.30008754,-0.25929347,0.15116368,-0.010717428,-0.39397895,-0.017662358,-0.091332495,-0.09645996,-0.10245186,-0.10433493,-0.16285239
0.037201453,-0.23684844,-0.1943304,0.09746454,-0.01655338,-0.28529087,-0.0112686455,-0.14243847,-0.045925327,-0.048754986,-0.04580476,-0.08845989
-0.18416701,-0.40587744,-0.29047242,0.39150274,0.0013838699,-0.30269718,0.09328667,0.12738654,-0.028563417,-0.143049,-0.24315012,-0.2758663
0.43104935,0.41645288,-0.29919168,-0.58611465,0.41563827,0.3933211,0.39829832,0.5458814,0.41401482,0.43481082,0.48145702,0.43634334
0.41106793,0.45844564,0.14545691,-0.57174027,-0.004362496,-0.2487329,-0.6360626,-0.14489557,0.1334118,0.40167525,0.50558436,0.5049867
-0.16798769,-0.44545558,-0.16107279,0.37794665,-0.073713884,-0.39255238,-0.2413501,-0.030434862,-0.3001145,-0.3557487,-0.27279046,-0.25803676
-0.03564766,-0.21968491,-0.16286156,0.102633156,0.08527336,-0.28259304,0.011332563,-0.029004602,-0.010410082,-0.054719098,-0.13911699,-0.10387776
-0.091280594,-0.25643864,-0.20678112,0.1560709,-0.0002656579,-0.345522,0.02129486,0.011305596,-0.035195857,-0.116376124,-0.13609624,-0.17485176
-0.004184967,-0.22086419,-0.18029137,0.11989952,0.009617569,-0.29272205,0.065640524,0.021824649,0.017031692,-0.03968136,-0.030877933,-0.0847042
-0.04317456,-0.26651382,-0.15638082,0.16207406,0.034487244,-0.28104195,0.06308304,0.026875848,0.0046184924,-0.045693267,-0.057709575,-0.1445494
0.024379011,-0.1766634,-0.17496195,0.06979475,0.045650024,-0.23814856,0.09899848,0.009177814,0.033616062,-0.0070418147,-0.020375948,-0.079797745
0.039473012,-0.14954828,-0.17292874,0.11142736,0.03252503,-0.22464113,0.083770074,0.041800834,0.029187642,0.0028767507,-0.042731445,-0.094057836
0.124922365,-0.09507316,-0.16032103,0.012651156,0.06705088,-0.17629866,0.12932226,0.117422886,0.06609535,0.046257243,0.034520585,-0.042078547
0.055358678,-0.078180544,-0.16991639,-0.011081838,0.13342942,-0.14499068,0.15038867,0.22175089,0.105918095,0.08213524,0.027997864,-0.00951473
0.33896488,0.039746195,-0.18949142,-0.1286783,0.2731152,-0.081095114,0.18668939,0.36873752,0.17383496,0.18287638,0.13575841,0.11277389
0.42074096,0.10466147,-0.20198245,-0.21214375,0.36293438,-0.056500368,0.15907308,0.39406177,0.15088615,0.26193964,0.1883601,0.17652027
0.46747738,0.20233724,-0.2360294,-0.29918945,0.39147338,-0.00265699,0.121330164,0.39068213,0.10304648,0.285787,0.24282481,0.21374139
0.3958606,0.12268257,-0.25142783,-0.15552129,0.32470587,-0.02480731,0.06679508,0.22525482,0.060957935,0.17099406,0.17518629,0.15801668
0.11296896,0.057275068,-0.2062437,-0.03471981,0.08344854,-0.00528277,0.044287007,0.054792963,0.022131376,0.05799894,0.10886737,0.028474916
0.02524778,-0.051027346,-0.13646618,0.080699295,0.021994172,-0.07043466,0.032466322,-0.042653594,0.006269254,-0.022391718,-0.02045233,-0.049137447
0.000681281,-0.11074501,-0.126131,0.084398896,-0.046028342,-0.10303324,0.0023298818,-0.087550946,-0.014899462,-0.038732514,-0.047757566,-0.07369032
-0.06590263,-0.17745796,-0.118150845,0.15765412,-0.057160318,-0.15043132,-0.0028725187,-0.10724456,-0.014684932,-0.06868736,-0.09448672,-0.104411684
-0.058137763,-0.1723331,-0.119082,0.13233773,-0.069264665,-0.13266678,0.0032497828,-0.11705377,-0.02165715,-0.07529856,-0.075268365,-0.090589166
-0.04259728,-0.2037669,-0.10151996,0.1710694,-0.069814,-0.14224793,0.005064802,-0.09699233,-0.0072613573,-0.067634195,-0.084718905,-0.08344363
-9.715557e-05,-0.16510473,-0.07568444,0.20541346,-0.08464961,-0.12325672,0.006261863,-0.09315642,-0.004925688,-0.063007906,-0.048628807,-0.07504493
-0.016423656,-0.1702426,-0.08614004,0.18751359,-0.074993186,-0.13867484,0.013249426,-0.088244386,-0.00011232495,-0.064249285,-0.07516533,-0.08998941
-0.0027645756,-0.15581465,-0.09752588,0.16217522,-0.068872884,-0.12504119,0.005863838,-0.089392185,-0.004245464,-0.062213317,-0.061657112,-0.092748225
-0.034957256,-0.1847552,-0.093499884,0.15881686,-0.050849263,-0.10367699,0.006390097,-0.10080052,-0.0012563758,-0.066178344,-0.085519455,-0.097077
-0.036390796,-0.17825772,-0.09562292,0.16977927,-0.053865787,-0.0994783,-0.0055338177,-0.11981989,-0.009155047,-0.07506822,-0.064007245,-0.08916507
-0.053144675,-0.19827323,-0.09249932,0.1122792,-0.055417508,-0.096021846,0.009983297,-0.12528086,-0.00014790893,-0.07880091,-0.09617716,-0.09571558
-0.040438432,-0.17641786,-0.08096117,0.102549024,-0.049574383,-0.11654681,0.00045359132,-0.13280186,-0.008187648,-0.08398696,-0.07564115,-0.09146802
-0.07191542,-0.18842667,-0.06975459,0.09151608,-0.040993385,-0.111657105,-0.0071644452,-0.14346053,-0.022889012,-0.06741241,-0.12077145,-0.0694148
-0.050942037,-0.16439961,-0.05237286,0.10494499,-0.023559352,-0.13305253,-0.012083836,-0.14292942,-0.031018704,-0.06934288,-0.10276043,-0.0666275
-0.07022898,-0.1891915,-0.038630057,0.09497874,-0.017696142,-0.12730125,-0.0007024108,-0.14738557,-0.02038837,-0.067889266,-0.13587633,-0.077459134
-0.021695875,-0.14263257,-0.034912992,0.065047435,-0.01588801,-0.13356766,-0.0041323067,-0.13255224,-0.022657838,-0.06788947,-0.097375154,-0.075595126
-0.04584613,-0.15534179,-0.030913722,0.07458537,-0.018916406,-0.09660493,-0.0011157687,-0.14550063,-0.021992534,-0.058890518,-0.09888711,-0.07418832
-0.0018338242,-0.14069113,-0.02842075,0.07711386,-0.013288997,-0.08908707,0.00070789445,-0.113223016,-0.016633525,-0.040626653,-0.041235954,-0.052480124
-0.05554752,-0.15733661,-0.017678177,0.06706281,-0.02327153,-0.100515485,-0.00065416086,-0.09742528,-0.004093505,-0.032140624,-0.08905053,-0.043793187
-0.019392712,-0.11483642,-0.02177812,0.05860677,-0.027197685,-0.09533245,-0.0082792835,-0.08200976,-0.014792376,-0.015777143,-0.05368535,-0.0371111
-0.0430382,-0.13757946,-0.018642858,0.07044833,-0.035972625,-0.088471,-0.020538392,-0.09885364,-0.017684672,-0.025512433,-0.067615956,-0.039325867
-0.0008350907,-0.091783464,-0.024130965,0.032354027,-0.060690735,-0.112822704,-0.029703103,-0.099129505,-0.03161119,0.00078839046,-0.027891075,-0.024358967
-0.060361736,-0.18210721,-0.030775243,0.08263157,-0.062580355,-0.10410965,-0.007864552,-0.1534702,-0.032238007,-0.01407286,-0.10615484,-0.0444213
-0.022135992,-0.17276047,-0.04979268,0.087313645,-0.10771235,-0.12720543,0.0020895868,-0.15365987,-0.03710836,-0.019383147,-0.08220486,-0.049428057
-0.15069374,-0.22334512,-0.055267673,0.10451014,-0.065649785,-0.097336896,0.03723425,-0.1496901,-0.023982963,-0.0714942,-0.14301403,-0.046126302
-0.060222827,-0.15046814,-0.07021554,0.07058711,-0.08016807,-0.1686704,-0.01866285,-0.08518807,-0.07469911,0.028180646,-0.036425143,-0.018154385
-0.15162551,-0.20537278,-0.08244229,0.1548846,0.054437205,-0.07587527,0.07875755,0.08759889,0.0195355,-0.0661163,-0.18712613,-0.08712525
0.091088995,-0.23679747,-0.08730504,0.067425855,0.037543524,-0.5348044,0.15715629,0.55263114,0.41194856,0.41532463,0.44755745,0.40803012
0.0763966,-0.15424348,-0.056019455,-0.006159466,-0.27014098,-0.42831555,-0.44195768,-0.11924928,-0.25395557,0.40834862,0.52391887,0.42802763
-0.16451907,-0.18040878,-0.059491277,0.018159658,-0.0091356775,-0.070290245,0.033983074,-0.10810316,-0.19341785,-0.18541633,-0.1383857,0.024019657
-0.09652338,-0.18456465,-0.08554786,0.044248607,-0.02842462,-0.08319283,-0.021300908,0.1048235,-0.033822417,-0.06403464,-0.06239313,-0.072093725
-0.042138405,-0.13874792,-0.09600348,0.043258328,-0.01778147,-0.01660838,0.02640733,-0.04436309,-0.027728839,-0.09426005,-0.1102671,-0.08782273
-0.01666761,-0.08100487,-0.083833404,0.047718763,0.0068354136,0.0033204732,0.0181854,0.04638301,-0.011934578,-0.017365409,-0.04738404,-0.06727573
-0.009885823,-0.033852007,-0.080717295,0.0046760696,0.005219144,0.03702286,0.05674836,-0.07072459,-0.014950711,-0.047276128,-0.08629226,-0.07857178
0.022130094,-0.008127749,-0.09112987,-0.0022647937,0.027407993,0.030921552,-0.01649108,0.013970032,-0.006141019,-0.047123253,-0.03762388,-0.08669827
0.023401368,0.0024534713,-0.09517794,-0.01057642,0.045138244,0.06054732,0.005478685,-0.056678936,-0.011160059,-0.035176598,-0.06126132,-0.08584384
0.05580362,-0.010932963,-0.124763004,-0.030497478,0.06655057,0.039737657,-0.041159876,0.06746946,-0.018178964,0.006349687,-0.02703711,-0.045994382
0.13135815,0.09514457,-0.10268936,-0.018418405,0.20232931,0.05672397,-0.05519616,0.14461718,-0.008961288,0.033508893,-0.03573258,-0.041052233
0.39765936,0.35717696,-0.15370613,-0.086178705,0.36752468,0.080805436,-0.054823212,0.39717644,0.020602858,0.110891305,0.014475407,-0.009802177
0.40284476,0.12764385,-0.19238982,-0.1590155,0.36686483,0.10296557,-0.075022705,0.39848837,-0.0012163514,0.13358541,0.03495044,0.0077692494
0.4376199,0.28143084,-0.16132858,-0.113661885,0.34759185,0.1027289,-0.06218342,0.40233153,-0.0047883918,0.14295888,0.04754562,0.015332302
0.40151566,0.28524852,-0.08897466,-0.06368853,0.23487197,0.05879759,-0.02935189,0.3944116,-0.046288647,0.06604797,0.005223912,-0.007894978
0.17050195,0.09786876,-0.07139412,-0.010555769,0.1381944,0.03594765,0.010730928,0.3053268,-0.054653965,0.036580298,-0.0016076253,-0.010778546
0.0027196042,-0.00014829636,-0.065366395,0.01510541,0.014978779,0.0127859,0.023129003,0.12814203,-0.09775577,-0.0088737365,-0.04636912,-0.029851386
-0.052406475,-0.04967466,-0.04692857,0.0041542114,-0.023944747,-0.0196423,0.045209594,0.1201833,-0.09810412,-0.041650623,-0.042856712,-0.041217506
-0.09791386,-0.06269577,-0.018537812,0.021399122,-0.05334607,-0.025206262,0.03770426,-0.043896195,-0.107815385,-0.05539772,-0.054945774,-0.05113156
-0.039368387,-0.057898633,-0.00927383,0.018105049,-0.05615365,-0.015006786,0.043555014,-0.047322158,-0.094997555,-0.050858837,-0.031278417,-0.044544257
-0.04618034,-0.052242983,0.0013268284,0.009628564,-0.04829402,-0.01778564,0.018870885,-0.08282846,-0.10982613,-0.05603,-0.057601217,-0.056363776
-0.022936493,-0.045598187,0.02728926,0.01584272,-0.04406232,0.003614082,0.021282677,-0.04745356,-0.085344166,-0.05244324,-0.03309028,-0.04722635
-0.06260716,-0.0389215,0.024442364,0.012699428,-0.040418737,0.0014708032,-0.0039266744,-0.09517853,-0.09677841,-0.054879636,-0.055807035,-0.044293698
-0.049162302,-0.035374805,0.03540436,0.005929192,-0.05757799,-0.003891061,0.0156168165,-0.05831119,-0.076383084,-0.051494192,-0.044160802,-0.01881434
-0.04824074,-0.019648258,0.029572861,-0.00088509894,-0.06316025,-0.0197264,-0.0067917556,-0.10449122,-0.09402298,-0.03987736,-0.052819967,-0.02023781
-0.057502158,-0.03476083,0.047222037,0.000748515,-0.077950776,-0.014570248,-0.002062556,-0.0658264,-0.07498717,-0.040105425,-0.040860273,-0.011698934
-0.07296761,-0.030790756,0.05422971,-0.0038703785,-0.057826072,-0.0112114325,-0.03135943,-0.117177576,-0.06501224,-0.038052298,-0.04851425,-0.020656686
-0.043758266,-0.0177397,0.053696793,-0.006556715,-0.033885226,-0.01884017,-0.016182946,-0.11614693,-0.05352806,-0.047040828,-0.048114225,-0.02418273
-0.038809884,-0.014572304,0.05044327,-0.0055332514,-0.026181852,-0.019866506,-0.023121795,-0.14953376,-0.080342,-0.059145898,-0.07472007,-0.02912249
-0.019143239,-0.0075013125,0.045533948,-0.009210356,-0.028335316,-0.0010755355,0.0030902824,-0.102875136,-0.057424482,-0.047837224,-0.06315081,-0.029240496
-0.029969893,-0.009106683,0.03258585,-0.0144821415,-0.07228278,-0.0057311323,-0.013827397,-0.14319818,-0.09699298,-0.051913697,-0.067852594,-0.018024221
-0.029087175,-0.021998312,0.029181538,-0.015216815,-0.062798455,-0.0013001554,-0.01449546,-0.11398222,-0.087524004,-0.048510086,-0.065128304,-0.0143923955
-0.01864402,-0.021446664,0.02179915,-0.023587799,-0.0648484,-0.010631608,-0.03859447,-0.15148494,-0.103501335,-0.050451145,-0.07351301,-0.017525667
0.0047891964,-0.012668051,0.029179929,-0.0065846685,-0.077885576,-0.011899029,0.012645703,-0.058513187,-0.07329019,-0.03283235,-0.06301782,0.00066292274
-0.008077416,0.0013786247,0.024928411,-0.0062769423,-0.07114106,-0.0327392,0.011353005,-0.053725377,-0.08732048,-0.046434127,-0.066414885,-0.0099962
0.026004203,-0.0041562677,0.022007458,-7.265806e-05,-0.047491204,-0.02829315,0.05451351,-0.012942396,-0.06079641,-0.047598813,-0.065291554,-0.012975948
0.028444631,-0.0011033113,0.020868072,0.0056854766,-0.036692202,-0.035516486,0.04153805,-0.03476092,-0.0865788,-0.048273295,-0.045624033,-0.005785311
0.04889859,-0.0023845688,0.03645583,-0.002195176,0.0051054214,-0.020932298,0.04686761,-0.04039422,-0.074807495,-0.046627365,-0.030971691,-0.008101346
-0.0020629137,-0.017691018,0.051072616,-0.008735375,0.045338016,-0.010364906,0.022844393,-0.07297799,-0.112103134,-0.048884347,-0.058323786,-0.028398743
-0.013721886,-0.021433081,0.049432606,-0.018260058,0.00088530756,0.015596556,0.047458526,-0.06437058,-0.075007975,-0.01871987,-0.071646415,-0.05518145
-0.05306259,-0.015960768,0.064388186,-0.016905038,-0.019104421,0.016767628,0.0036663546,-0.1343515,-0.09597797,-0.037933886,-0.08965813,-0.06883913
-0.0722119,-0.017866975,0.030690327,-0.025457097,-0.103722334,0.011155381,0.025894307,-0.08676946,-0.07657682,-0.03754882,-0.04309713,-0.045560624
-0.027677022,0.04823628,0.050264787,-0.011838837,-0.09324546,0.02216703,0.004449964,-0.077478565,-0.021291375,-0.05818909,-0.06811287,-0.04834864
0.17008527,0.39071488,0.090322606,-0.023774792,-0.20703477,0.037718188,0.06812762,0.09737949,0.12181607,0.17487423,0.10592246,0.024367604
0.06449473,0.1324572,0.21787097,0.014315074,-0.18889752,0.015965596,-0.024090605,-0.14290263,-0.34795493,0.42664713,0.558709,0.4328423
-0.12475825,0.25584623,0.09039059,-0.074278444,-0.18040313,0.0060919067,-0.16255617,-0.27306455,-0.48833072,-0.12338779,0.08958136,0.2667996
-0.025146367,-0.004069902,-0.03662137,-0.0925599,0.06682356,0.0056831525,-0.041694596,-0.0148317665,-0.08972229,-0.13211432,-0.09015696,-0.13813406
-0.13004649,0.009921314,0.01156067,-0.046974156,-0.07112211,0.0005628466,-0.017480232,-0.034525227,-0.0330717,-0.031007033,-0.07314011,-0.06618734
-0.10205055,-0.015837835,0.04200084,-0.025076525,-0.061347093,-0.0026527878,0.050670434,-0.01472039,-0.08923378,-0.024765464,-0.06959871,-0.08683356
-0.086766124,-0.012321683,0.0477336,-0.030631702,-0.1947788,-0.0050267153,0.0077745244,-0.036216445,-0.054816555,0.00021788478,-0.047447167,-0.03153881
-0.02555124,0.0021384326,0.07143991,-0.007484624,-0.09551626,0.0066105654,0.08650086,-0.026059479,-0.055337287,0.008039897,-0.02016548,-0.05584649
-0.020493915,0.013893425,0.029951641,-0.042886935,-0.122461446,0.0011212523,0.046750594,-0.03770634,-0.026944164,0.023009172,-0.012717962,-0.037662327
0.035970747,0.0332009,0.016886,-0.06650743,-0.015455803,0.02718476,0.07487213,-0.021521792,0.009300351,0.049818337,0.012933517,-0.03968874
0.08684249,0.090480514,-0.014474632,-0.10712872,-0.023459958,0.036125638,-0.026590038,0.033831257,0.100266635,0.091120265,0.06952181,-0.012127996
0.24234472,0.11859911,-0.01875565,-0.09600537,0.10502036,0.03833453,-0.05248274,0.08447118,0.14511648,0.14255616,0.10315416,0.029891554
0.407711,0.13112727,-0.048807733,-0.08665222,0.105882384,0.03264325,-0.18112609,0.12359085,0.23392217,0.17511974,0.16799845,0.08610019
0.3937123,0.09428693,-0.01778996,-0.051684212,0.13666081,0.026153054,-0.11181968,0.110947385,0.2259994,0.27451158,0.21601771,0.17630623
0.17040148,0.085458,0.005886427,-0.009770798,0.023439256,0.031266805,-0.08748553,0.078846164,0.18212879,0.18387122,0.20268174,0.18225779
0.08389833,0.0610865,0.040133364,0.03166853,-0.00777521,0.020881686,0.029611481,0.029718883,0.07005602,0.06078676,0.12641808,0.083917774
-0.051236697,0.032364864,0.08831399,0.041210126,-0.0927422,0.020891756,0.008668921,-0.0051890444,-0.009769933,-0.03508599,0.033693906,0.00069016207
-0.104839854,0.021292746,0.116238065,0.038998604,-0.08917458,0.027113555,0.07231062,-0.031001585,-0.07994376,-0.08909115,-0.040415343,-0.058786158
-0.10998365,0.025339661,0.12822191,0.048304398,-0.10834297,0.021314582,0.0150544895,-0.022023693,-0.09070373,-0.093780875,-0.04135963,-0.076700516
-0.11912072,0.029936872,0.1385535,0.041167792,-0.100437075,0.01994259,0.04631922,-0.03503682,-0.11172962,-0.10385188,-0.07627533,-0.07929789
-0.12695315,0.0076245978,0.14478593,0.040912103,-0.14111182,0.014863291,-0.03305006,-0.017682705,-0.099060334,-0.08718215,-0.04983698,-0.07901512
-0.1242127,-0.002731227,0.15209107,0.015845552,-0.12879361,0.007996955,-0.010701933,-0.014399755,-0.109995194,-0.08239061,-0.05791705,-0.06648924
-0.09849743,-0.0071143797,0.13581379,0.032252833,-0.13045694,0.019967316,-0.047912363,-0.019218491,-0.09058237,-0.055937994,-0.027755402,-0.042274628
-0.07408183,0.0028686146,0.1325505,0.021100964,-0.10295174,0.038977508,-0.008538813,-0.014939448,-0.09515893,-0.058906525,-0.04164756,-0.03259416
-0.074140094,0.008552045,0.13440003,0.041640062,-0.15434867,0.035124004,-0.041466616,0.007873819,-0.09634835,-0.027128566,-0.043868177,-0.019398669
-0.05695568,0.016703244,0.12129528,0.040041007,-0.1587278,0.03648244,-0.012386255,0.011423359,-0.10104955,-0.03581047,-0.055320114,-0.0115725
-0.054013178,0.008545847,0.09871181,0.044067077,-0.15934019,0.04017681,-0.051551946,0.00639865,-0.07995807,-0.020186186,0.016869703,-0.009030245
-0.04756664,-0.0037924466,0.08587259,0.030851822,-0.17172606,0.069252595,-0.030401604,-0.0024272157,-0.07800937,-0.07434552,-0.053737026,-0.032382756
-0.054456666,-0.004367294,0.0797729,0.031768803,-0.15831755,0.052949216,-0.061836492,-0.013374932,-0.085859455,-0.053787276,-0.053325776,-0.03417183
-0.056272276,-0.0051142722,0.09998243,0.027228896,-0.13535415,0.07245167,-0.03327586,-0.02201419,-0.09060004,-0.09385638,-0.06436601,-0.05120397
-0.077948466,0.0016526267,0.1058487,0.030556165,-0.17326467,0.047998175,-0.061844714,-0.024115415,-0.106430575,-0.06713081,-0.06201183,-0.058591712
-0.061526064,0.010074841,0.11315741,0.017599225,-0.15741862,0.047796044,-0.044669952,-0.025483424,-0.10633858,-0.09510559,-0.05793793,-0.053872976
-0.06210401,0.013553266,0.102249384,0.030230308,-0.17230071,0.048895825,-0.053934906,-0.021032093,-0.07837257,-0.050488334,-0.04845297,-0.040319744
-0.02085872,0.0055407314,0.098600015,0.026908934,-0.14513125,0.055200852,-0.036132425,-0.009798541,-0.079315074,-0.081652366,-0.054819763,-0.04219793
0.004806809,-0.0004740655,0.0818415,0.033193905,-0.104666896,0.052076455,-0.038369376,0.013618611,-0.0486426,-0.032229763,-0.029665675,-0.023856018
-0.031370148,0.0058302516,0.07633423,0.009533295,-0.13944209,0.039572634,-0.03484742,0.017432682,-0.042940747,-0.057736456,-0.03152634,-0.012319001
-0.022150885,0.008881365,0.09367843,0.008297343,-0.14863142,0.05942749,-0.0690663,0.042264156,-0.025486998,-0.024641026,-0.025093174,0.010341812
-0.010903969,0.0069731534,0.09288644,-0.014440248,-0.1406677,0.045109186,-0.07579446,0.02203811,-0.0707065,-0.07393449,-0.053128656,0.010723955
-0.019451847,0.005691765,0.067799285,-0.011651704,-0.14311865,0.021611573,-0.12675019,-0.0073266206,-0.08161462,-0.045317404,-0.03111636,0.027136963
-0.025248911,0.008127928,0.08999898,-0.013445491,-0.15279454,0.0033174036,-0.09372977,-0.076198235,-0.1431082,-0.13052854,-0.12275229,-0.0368367
-0.038760994,-0.008034503,0.09922508,-0.0025269038,-0.18797328,0.004643347,-0.0799501,-0.07382195,-0.0965467,-0.066944726,-0.060904223,-0.040787525
-0.045314938,-0.007223808,0.1347542,0.002304669,-0.21537574,0.02930127,-0.017165674,-0.07180516,-0.13310792,-0.14247194,-0.124829546,-0.054282453
-0.08280653,0.0016336129,0.17912102,0.014660113,-0.24376355,0.050551027,-0.05844449,-0.040141698,-0.026024396,-0.051731203,-0.03148531,-0.011990747
-0.08136216,0.012478925,0.17075655,0.022161074,-0.18951643,0.034533177,0.095345125,0.021191612,0.034863524,-0.038869787,-0.04819031,-0.09815241
-0.09034206,0.01494067,0.18972783,0.030639146,-0.22717531,0.18874551,0.3574391,0.40460274,0.54289746,0.5511336,0.553198,0.43048105
-0.07117684,0.009795114,0.16394038,0.028570475,-0.22048202,-0.054269556,-0.61834216,-0.28298438,0.22354957,0.40118465,0.42065316,0.42328683
-0.059339497,0.008575527,0.14927223,0.031295866,-0.25003168,-0.06086325,-0.32113165,-0.4136612,-0.28393728,-0.21467462,-0.20317946,-0.13103284
-0.057843834,-0.022847967,0.1795861,0.030354261,-0.25495192,0.12886529,-0.04980169,-0.029822623,0.03322942,0.03042331,0.03302916,0.045452576
-0.09436273,-0.016500793,0.22132611,0.013742595,-0.28198525,0.0756466,0.034244463,-0.073410295,-0.08920049,-0.0875078,-0.09724586,-0.052236
-0.14963295,-0.019636014,0.2672569,-0.0057341424,-0.31910038,0.04975454,0.0076957317,-0.014500436,-0.016878283,0.01282717,0.009195128,-0.0025596265
-0.17263748,-0.005481844,0.38326046,-0.014268383,-0.36516955,0.043827485,0.036897384,-0.0037790954,-0.033857126,-0.037080653,-0.044200033,-0.044635747
-0.18256773,-0.01329439,0.32053593,-0.005096749,-0.34815028,0.050465,-0.0020714372,0.03999382,0.040791247,0.043632265,0.029483473,-0.00581246
-0.16859749,-0.00022253394,0.2817807,0.027739173,-0.23519498,0.059540335,0.023888633,0.03822201,0.040965594,0.010190074,-0.00044903156,0.0075921747
-0.15146287,-0.0006358623,0.31373036,0.026555968,-0.20878428,0.06814227,0.02079479,0.0901942,0.12971532,0.10156196,0.083264865,0.047448177
-0.13637084,0.007831443,0.26064277,0.018364599,-0.17277278,0.10231169,0.044695858,0.13975677,0.13403204,0.09736237,0.0917524,0.06994772
-0.11136885,0.035888005,0.27968326,0.0081972135,-0.17592798,0.13237754,0.02370271,0.20944278,0.24757156,0.21949947,0.21046849,0.12332469
-0.111582585,0.047011565,0.30758777,9.1671944e-05,-0.17753457,0.13668084,0.0218091,0.16664734,0.2688367,0.2391953,0.24310386,0.14364351
-0.054678924,0.07375295,0.39050135,-0.012392095,-0.22134878,0.109864615,-0.037111487,0.09683365,0.23093964,0.24181505,0.25292087,0.16502523
-0.10101575,0.070352755,0.30860382,-0.002288278,-0.27538708,0.094821885,-0.000310719,0.063585185,0.122929074,0.13660364,0.16419017,0.10214746
-0.08735469,0.0799554,0.20114782,0.0029633853,-0.27276248,0.06866407,-0.007836986,0.016976364,0.03745826,0.05399716,0.08326854,0.04552336
-0.09045781,0.033089206,0.11658029,0.012355295,-0.24296476,0.029378451,0.04307717,-0.012248499,-0.0727508,-0.066625185,-0.032075156,-0.03438038
-0.0684195,0.020931672,0.10480938,0.008715379,-0.23937656,0.006525096,0.01779008,-0.035988487,-0.09011196,-0.07463545,-0.038357355,-0.05946654
-0.08366741,-0.0070564765,0.10547549,-0.0027130775,-0.25815526,0.021761527,0.061873425,-0.03535004,-0.11094435,-0.105188824,-0.06408091,-0.07664633
-0.085186854,0.005393304,0.14116843,-0.012126358,-0.26146263,0.008859015,0.053947266,-0.040406063,-0.07819618,-0.053071506,-0.017733205,-0.066599675
-0.10609773,0.02833609,0.1377418,-0.008807312,-0.27397892,0.06546957,0.09175991,-0.0330255,-0.08015625,-0.064333096,-0.026627623,-0.066601574
-0.124406174,0.058662012,0.16261025,-0.035670042,-0.31831178,0.13030586,0.06669091,-0.02978853,-0.047913287,-0.01668066,0.0007357,-0.058324557
-0.15184167,0.055393115,0.17124969,-0.027500935,-0.39951962,0.13450414,0.10617511,-0.03532096,-0.06484148,-0.051455166,-0.028204737,-0.052719515
-0.13780726,0.082437314,0.183881,-0.009940118,-0.38413253,0.1072668,0.0840204,-0.040440336,-0.043472413,-0.034001708,-0.01916758,-0.03915429
-0.13443287,0.06541945,0.14934073,0.031551227,-0.36394307,0.10751805,0.08356256,-0.032598294,-0.080735765,-0.08911362,-0.056995038,-0.05643326
-0.11284771,0.04920969,0.1476869,0.043497697,-0.3232862,0.11589911,0.026855923,-0.041520018,-0.061812237,-0.06419639,-0.03696271,-0.055929855
-0.11263516,0.012870793,0.12533037,0.023808628,-0.29234624,0.09087365,0.03163721,-0.045369335,-0.069033675,-0.091075666,-0.07317046,-0.06485276
-0.121268146,-0.013975902,0.11038451,0.06549803,-0.3165724,0.06409536,-0.0041068858,-0.055191644,-0.066461645,-0.06638646,-0.058307625,-0.058031343
-0.13421091,-0.01653166,0.08054796,0.042503305,-0.2942359,0.054098222,0.046128325,-0.057839673,-0.08888673,-0.10506539,-0.08673128,-0.05909223
-0.1158251,0.0004558861,0.07504496,0.039517555,-0.28546354,0.07469888,0.021542702,-0.0784212,-0.07332321,-0.073478535,-0.053541314,-0.05083687
-0.14100188,0.020264028,0.09273653,0.0010149177,-0.30995095,0.058670208,0.065700166,-0.086814865,-0.07973135,-0.09558825,-0.08425438,-0.049441613
-0.13741782,0.040762298,0.10986606,-0.009863117,-0.33443594,0.06844745,0.012219983,-0.06684092,-0.07042123,-0.057248723,-0.037523527,-0.03758117
-0.18781114,0.034636077,0.10494738,0.007173773,-0.3286076,0.05594887,0.019348055,-0.08364679,-0.07821736,-0.08150349,-0.07139602,-0.04130593
-0.17212668,0.07475211,0.12528071,0.008814762,-0.33986664,0.072999656,-0.016093593,-0.09037871,-0.05713991,-0.045161262,-0.040403888,-0.026107397
-0.17501464,0.09229051,0.15910602,-0.014766722,-0.35469687,0.06252283,0.057708953,-0.10032998,-0.076565504,-0.059452433,-0.058038265,-0.01983579
-0.16148545,0.13569859,0.21614659,-0.033424113,-0.36676332,0.098521985,0.020287799,-0.09062251,-0.03128994,-0.024207244,-0.018362127,0.0013493589
-0.15542462,0.1443842,0.19250709,-0.004190927,-0.36864093,0.05202242,0.07777142,-0.073739074,-0.069854744,-0.05716347,-0.05145903,0.0134662
-0.017413167,0.12755612,0.17141467,-0.014292161,-0.3226589,0.063872084,-0.009047768,-0.06573566,-0.049791433,0.0053965226,-0.01037039,0.05089828
0.08017615,0.074533716,0.086021185,0.038170174,-0.25598738,0.030338839,0.0863855,-0.05665814,-0.08656428,-0.072260424,-0.07957923,0.0017526728
-0.14008866,0.03172349,0.08461753,-0.020114062,-0.24930328,0.0620476,-0.011566659,-0.059304986,-0.06180728,-0.035936967,-0.038058218,-0.02926798
-0.15011433,0.011121023,0.091487296,0.06808997,-0.20936784,-0.024296269,0.1408228,-0.011362064,-0.06731947,-0.12870708,-0.133102,-0.079702035
-0.16764499,0.06319753,0.126317,-0.026186498,-0.18082254,0.049753055,-0.06237425,-0.014733649,-0.039415553,-0.030185705,-0.034512963,-0.031598862
-0.0737897,0.041499995,0.07597936,0.18201524,-0.2436277,-0.043483417,0.44283637,0.23936822,0.17397927,-0.15409544,-0.09573064,-0.082250446
0.41331,0.44292015,0.42040613,-0.830498,-0.3037401,0.5054144,0.062070612,-0.59553653,0.4060231,0.45250425,0.5276757,0.425019
0.07627405,0.4052043,0.394857,-0.45166278,-0.7213324,0.4613076,-0.76873827,-0.7227932,-0.36197025,0.39930373,0.4175585,0.4077355
-0.09787171,-0.0065802876,-0.02292848,0.39215854,-0.40691906,-0.18814917,0.34385338,-0.07598428,-0.22228166,-0.18206663,-0.27803454,-0.15045509
-0.12471911,0.10017733,0.17337415,-0.113303274,-0.2946076,0.10913753,0.08422381,-0.012028919,0.024627265,0.0029196357,0.02184133,0.056682117
-0.13025281,0.046111226,0.10967326,0.06393177,-0.27404013,0.0633189,0.23434347,0.03292565,-0.032651227,-0.115330815,-0.09841579,-0.08413033
-0.09325415,0.06416799,0.19212422,-0.04308919,-0.30286947,0.09254855,0.05749105,0.03000223,0.03278621,-0.029580336,-0.009773688,-0.004414738
-0.11161767,0.070288464,0.1463803,0.025752421,-0.32116303,0.034506444,0.1289111,0.048838593,-0.0010230836,-0.080641404,-0.04487262,-0.057375234
-0.10752394,0.10011629,0.19028927,-0.078579456,-0.32843584,0.12175579,0.034206867,0.053489666,0.05136647,0.0042600674,0.008624965,0.021477705
-0.11190255,0.10684259,0.14957729,-0.047586266,-0.3461982,0.11694713,0.10236519,0.08019664,0.058413867,-0.013331905,0.010056693,0.018690137
-0.14189962,0.13921332,0.21866162,-0.121028766,-0.32135203,0.17691302,0.061361317,0.12692831,0.12108268,0.08777402,0.07499266,0.07388564
-0.10909053,0.18868113,0.2351261,-0.15544532,-0.33802432,0.21621442,0.10907858,0.15734205,0.17720507,0.12006016,0.102492906,0.11591701
-0.11071086,0.32887095,0.35608727,-0.25567627,-0.32162026,0.29949412,0.06715526,0.1863151,0.29045394,0.23170385,0.21342818,0.22877182
0.12649086,0.3989832,0.39210376,-0.28959185,-0.29084882,0.36282152,0.10949919,0.18079326,0.28930277,0.2981846,0.22426322,0.26355946
0.13993038,0.3973831,0.3995548,-0.3759417,-0.3233668,0.40078425,0.044803765,0.14222862,0.23606811,0.29495296,0.2107646,0.3105294
-0.024817586,0.301364,0.2888424,-0.29229254,-0.30954123,0.2769941,0.07780471,0.044186976,0.12602495,0.14449355,0.12204287,0.19413212
-0.034692395,0.20103468,0.23293518,-0.1993091,-0.3738858,0.19898547,0.060681503,0.015552727,0.03256951,0.042101547,0.0420986,0.10358336
-0.055770554,0.08855747,0.15596853,-0.1198703,-0.4093747,0.09664006,0.096929386,-0.029450778,-0.051116403,-0.059119552,-0.04267412,-0.0029924125
-0.08968362,0.056298804,0.18296146,-0.09674954,-0.4014372,0.11440925,0.06966358,-0.04473827,-0.0554192,-0.08542451,-0.04516135,-0.015182252
-0.11406894,0.06081117,0.14124607,-0.07262451,-0.408498,0.06155026,0.09799394,-0.057028696,-0.089946955,-0.11010683,-0.077693805,-0.048900403
-0.120097585,0.06778804,0.18444273,-0.039599355,-0.39597404,0.09734242,0.060561452,-0.05549098,-0.04995485,-0.07500934,-0.034750916,-0.018218558
-0.13310316,0.05571155,0.15985452,-0.029999282,-0.39307374,0.06613618,0.072706565,-0.06571788,-0.078526795,-0.1048296,-0.06558771,-0.054551426
-0.12561344,0.062328354,0.19470046,-0.016797036,-0.41543412,0.10771064,0.030379005,-0.070556186,-0.059905984,-0.082171,-0.04816504,-0.018159479
-0.11839428,0.08002724,0.16469231,-0.0024433087,-0.43083337,0.07279856,0.075875826,-0.080762595,-0.078700915,-0.09513394,-0.07983269,-0.048112918
-0.12121183,0.08131366,0.20934649,-0.018037152,-0.43011916,0.11232189,0.027787535,-0.0738959,-0.06418942,-0.07096335,-0.06875418,-0.021620898
-0.10773998,0.07334144,0.16680393,0.012590578,-0.41010454,0.08506612,0.071098685,-0.053806413,-0.08145565,-0.09176544,-0.09354951,-0.049693182
-0.09393561,0.07204608,0.17513159,0.0029087581,-0.40528277,0.10236549,0.04395631,-0.058953274,-0.06283363,-0.07111342,-0.06454468,-0.036765717
-0.09099959,0.05778814,0.0859403,0.015852613,-0.44333863,0.05184694,0.07174283,-0.05529792,-0.08415031,-0.093830034,-0.08274571,-0.07001142
-0.11869211,0.053042058,0.10868961,0.0009773072,-0.43062204,0.07315324,0.027736671,-0.053674504,-0.06630504,-0.080776334,-0.038707606,-0.0543335
-0.12826778,0.025101306,0.061308347,0.03984457,-0.43524355,0.038983665,0.06499426,-0.054210067,-0.07087099,-0.10228754,-0.046038635,-0.07529397
-0.14738283,0.018421413,0.11431937,0.049065173,-0.45144647,0.05911112,0.017531745,-0.059854433,-0.059369907,-0.081258625,-0.025086235,-0.043746576
-0.15285467,-0.0050174175,0.109675854,0.056352217,-0.44052786,0.016366867,0.041983202,-0.06094754,-0.07268709,-0.10743792,-0.051880617,-0.07419748
-0.15850142,0.01525692,0.14568016,0.055398908,-0.4819472,0.035768025,-0.0051085805,-0.07131057,-0.031630065,-0.056388136,-0.028170908,-0.03387168
-0.1469064,0.00047293302,0.119021736,0.033304114,-0.4234705,0.01611859,0.0370825,-0.06515777,-0.06826757,-0.085676365,-0.039883845,-0.07189816
-0.15691206,0.053174034,0.18935665,-0.00195652,-0.47204775,0.06240901,-0.026695672,-0.07623553,-0.052494776,-0.056429815,-0.018385813,-0.040584046
-0.1622973,0.065325856,0.19349162,-0.03167511,-0.4643277,0.060457736,0.06849888,-0.057439808,-0.047952265,-0.08290015,-0.012350915,-0.0664496
-0.1252017,0.11013645,0.28844506,-0.07883704,-0.51107293,0.09659554,0.021753574,-0.060133033,-0.009582673,-0.059314787,-0.017291522,-0.023124564
-0.082075655,0.095839836,0.21851368,-0.0627021,-0.4059961,0.07482071,0.079381585,-0.04175341,-0.019301282,-0.10234758,-0.025920216,-0.057597715
-0.09886857,0.06768069,0.20671901,-0.037740804,-0.3920872,0.10320682,-0.042766042,-0.06934317,0.00047323105,-0.07327142,-0.03931703,-0.010087446
-0.15134254,-0.0074001392,0.13421461,0.036620297,-0.3097716,0.038145293,0.0396583,-0.017902995,-0.024666073,-0.12694071,-0.06253049,-0.07388964
-0.183806,0.00583806,0.17181604,0.058409948,-0.37219152,0.073403895,-0.0872749,-0.064264685,-0.06040865,-0.10469531,-0.036911402,-0.058879264
-0.21639197,-0.0031759334,0.11902092,0.062355753,-0.3287954,0.017204585,0.09497207,-0.0005317628,-0.0130930515,-0.09293029,-0.068647996,-0.08372154
-0.2773256,0.0099467635,0.15355553,0.062172588,-0.44832894,0.016445614,-0.059971403,-0.07023725,-0.06887582,-0.08942098,-0.03741621,-0.06548515
0.032010343,0.046280976,0.08694436,-0.044734254,-0.3496192,0.011418234,0.53399473,0.39360622,0.11984641,-0.02254676,-0.019908302,-0.058530558
0.41804418,0.5733375,0.5708759,-0.92336494,-0.68417144,0.57024384,-0.13505396,0.39101163,0.56885004,0.5622885,0.46043363,0.54923534
-0.30911157,0.39088115,0.4271771,-0.23046198,-0.49902633,0.40239337,-0.5172333,-0.6147386,0.18501979,0.1383567,0.28514788,0.39021093
-0.35726768,-0.1864089,0.021964861,0.17450486,-0.2690344,-0.09644975,0.39114642,-0.14455728,-0.10832412,-0.23310675,-0.14577016,-0.19066107
-0.26050076,-0.017058892,0.20084514,0.05111548,-0.40898564,0.023060137,-0.0032492166,-0.1329319,-0.042614177,-0.0947168,-0.037666433,-0.068454504
-0.23994094,-0.017312584,0.13985018,0.074081175,-0.3369766,0.02136957,0.08651523,-0.07224679,-0.04031189,-0.105610795,-0.06250846,-0.06789638
-0.21418945,0.079188764,0.19596767,0.01707364,-0.42426148,0.09465546,-0.010387971,-0.05590255,0.012130589,-0.08144789,-0.02906618,0.012246265
-0.25033435,0.03511588,0.14462148,-0.007975766,-0.3746394,0.072943635,0.09961163,-0.021549465,-0.01436984,-0.114837416,-0.045299113,-0.01753946
-0.1732912,0.07059844,0.22767933,-0.027258199,-0.4302401,0.12199974,0.040834624,-0.025682582,0.028417027,-0.06829513,-0.0022244416,0.029102063
-0.17781763,0.11147595,0.26676464,-0.08470381,-0.38689998,0.13688403,0.082584746,0.004566906,0.071407706,-0.058611672,0.011195997,0.017448353
-0.10100164,0.19205697,0.38134316,-0.15681927,-0.42609543,0.20458889,0.034969788,-0.00039076802,0.11386174,-0.0076785665,0.06603797,0.082485266
-0.069822155,0.22350924,0.39795226,-0.17920291,-0.35207564,0.205418,0.011158093,0.00062140817,0.14379175,-0.01870837,0.08635503,0.12781444
0.04815035,0.3114875,0.40168664,-0.20604356,-0.3747412,0.26195413,-0.008476054,0.09276841,0.21538015,0.08001557,0.17843114,0.21366593
0.030051894,0.34565768,0.39470682,-0.21941328,-0.3254716,0.27270594,0.0015684353,0.09173154,0.2416608,0.12641174,0.17556928,0.25338092
-0.026227687,0.33567443,0.3916857,-0.17071356,-0.34406877,0.27058524,-0.0009263453,0.072698355,0.22458792,0.16777837,0.16245165,0.2531358
-0.08584114,0.2471086,0.34184295,-0.12043741,-0.3952182,0.22177394,0.04330494,0.03329107,0.14566916,0.09770969,0.087462045,0.1428309
-0.15659817,0.1502685,0.25503471,-0.058751438,-0.4177553,0.16072233,0.05977571,-0.016182886,0.062210526,0.026992677,0.037622865,0.063221514
-0.2025512,0.063912325,0.17590733,-0.014311499,-0.39466485,0.12799427,0.062002033,-0.052598972,-0.0015821444,-0.05501358,-0.0032677236,-0.0069212406
-0.22750965,0.061013073,0.1657866,0.016982293,-0.39250433,0.086641535,0.033917703,-0.1013372,-0.055462845,-0.08995636,-0.04182508,-0.040538643
-0.21410649,0.04270839,0.1399786,0.023290265,-0.37378567,0.0726599,0.029244397,-0.09090584,-0.07848867,-0.103584655,-0.06993926,-0.047379605
-0.1812329,0.022017138,0.15068245,0.021377018,-0.38010207,0.06956372,0.0027558436,-0.10552774,-0.08237791,-0.100768305,-0.06428107,-0.05037035
-0.16727069,0.026867658,0.16025807,0.009362752,-0.33871695,0.08450373,0.0067569776,-0.09519684,-0.06736426,-0.103758425,-0.066048734,-0.05813652
-0.16077349,0.026024127,0.1512581,0.0024210168,-0.39174485,0.085994884,0.013373412,-0.10374457,-0.07162762,-0.09286552,-0.062477585,-0.049449194
-0.1637094,0.042627268,0.14369959,0.0076228394,-0.33456224,0.086135454,0.02742464,-0.088540435,-0.064943895,-0.08441955,-0.046765584,-0.054524653
-0.15655705,0.039627325,0.17594789,0.012782056,-0.3551,0.07421778,-0.0012097055,-0.10781686,-0.07179413,-0.09532525,-0.04317798,-0.05081743
-0.18863599,0.0629622,0.15016727,0.034643937,-0.37694252,0.0771532,-0.020224316,-0.08848721,-0.072379634,-0.07803854,-0.042907104,-0.043506738
-0.19135271,0.020950738,0.14550069,0.049237963,-0.39768478,0.04975023,-0.015047368,-0.12060746,-0.08430856,-0.09394878,-0.051493183,-0.038750637
-0.19926181,0.030270327,0.093721144,0.05595056,-0.32036746,0.051143065,-0.001717089,-0.10136659,-0.07402747,-0.087647684,-0.052574366,-0.06513694
-0.19115505,0.0018569508,0.107740246,0.06939697,-0.3473321,0.03837125,-0.015223817,-0.13277224,-0.08783021,-0.10771877,-0.058693018,-0.077770144
-0.18724191,0.0031095643,0.08441529,0.046739325,-0.3481408,0.035014465,-0.012512478,-0.11578382,-0.07652133,-0.09230538,-0.07166548,-0.070602
-0.16953549,-0.029738298,0.13062225,0.06809941,-0.38616,0.03188682,-0.02106915,-0.14868149,-0.10487611,-0.10689828,-0.06709423,-0.0832303
-0.17460023,-0.02540444,0.11348046,0.05141299,-0.3288019,0.028445823,-0.018823098,-0.11598705,-0.0845551,-0.082700066,-0.07037666,-0.061088964
-0.1716629,-0.051483788,0.1490924,0.083272,-0.33453715,0.012786645,-0.019067539,-0.14649488,-0.10276585,-0.10520468,-0.07717033,-0.08837662
-0.15653543,-0.028166471,0.17083749,0.04947503,-0.31960395,0.023292143,0.018408662,-0.10140646,-0.06908271,-0.072218925,-0.061265387,-0.070332356
-0.13967702,-0.017113386,0.22698806,0.0661068,-0.32703018,0.032541435,0.036406722,-0.10880942,-0.08186139,-0.09285973,-0.04708299,-0.08427326
-0.11669368,0.08985644,0.28165373,0.0039033692,-0.37246978,0.076301225,0.04699286,-0.07866487,-0.05224075,-0.05480681,-0.025870837,-0.03216992
-0.07785539,0.09756322,0.25415885,0.0019453441,-0.25713897,0.08231785,0.019872433,-0.1156101,-0.06857654,-0.06707981,-0.021779967,-0.022139804
-0.017383344,0.10581051,0.20090282,-0.026965873,-0.2589315,0.06806751,-0.032685526,-0.066866405,-0.035141535,-0.03672164,-0.010003144,0.008211816
-0.04134627,-0.0038766072,0.07711528,0.070127256,-0.23808558,0.007488826,-0.044476412,-0.13405979,-0.1049867,-0.112718016,-0.076389365,-0.06390716
-0.077828646,-0.030426852,0.07322501,0.06270201,-0.1592125,-0.004620191,-0.052908055,-0.11681597,-0.07051752,-0.07496438,-0.08619648,-0.04582412
-0.13012196,-0.1010348,0.039564688,0.16638719,-0.22694002,-0.077472314,-0.1003763,-0.12842987,-0.108593725,-0.14295915,-0.12834764,-0.10481887
-0.11772249,0.017954506,0.06430876,0.054540135,-0.14977774,0.0091576995,-0.048078127,-0.05392281,-0.033347487,-0.026006168,-0.107604064,-0.032277126
-0.21679929,-0.12463421,0.0023966087,0.24961768,-0.18087195,-0.093871206,0.39205304,0.055886213,-0.08850294,-0.12917759,-0.095615596,-0.17385466
0.41920578,0.44673908,0.3005998,-0.46959132,-0.2577058,0.4090182,0.48635373,0.53159356,0.484168,0.47499937,0.42968014,0.44204938
0.40745562,0.44650695,0.5302144,-0.81621295,-0.77936494,0.5401318,-0.57104456,-0.14264396,0.026419867,0.39842883,0.2656352,0.4112274
-0.3531709,-0.4224243,-0.19616961,0.23491213,-0.05187601,-0.18362613,-0.26212496,-0.12879302,-0.31603813,-0.237991,-0.13732162,-0.2120147
-0.122137524,-0.0044565503,0.013026693,0.08604443,-0.09149167,-0.0027888047,0.1599318,0.08123947,0.024711495,-0.036858484,0.0280241,-0.056003027
-0.15985432,-0.05237913,0.05029172,0.14685525,-0.20062895,-0.050319545,0.05860481,-0.035992775,-0.06207352,-0.13351737,-0.054051984,-0.079621784
-0.10381644,0.019897338,0.07003654,0.04550623,-0.2249946,0.0030271616,0.028170373,0.02115092,0.017800715,-0.052382283,-0.0038150663,-0.031362258
-0.120561875,-0.01267711,0.06781009,0.08648045,-0.22548334,-0.0061223637,0.041313067,-0.004945208,-0.015658619,-0.06516083,-0.023273854,-0.034984343
-0.05936278,0.06569204,0.09629671,0.023085605,-0.19939758,0.028335644,0.040237237,0.055389162,0.046007883,-0.009064068,0.0031452074,-0.0053671976
-0.06905474,0.034945827,0.082108125,0.033850517,-0.14209077,0.040834922,0.050816327,0.08762355,0.046542164,0.0013234309,0.00879432,0.0094157355
0.012831431,0.1014989,0.13332963,-0.044974573,-0.105575256,0.08506079,0.06530253,0.21995802,0.10744968,0.08585129,0.05170472,0.060250174
0.013673675,0.08685275,0.14750609,-0.0806735,-0.12519203,0.10308481,0.056575913,0.23872948,0.13750613,0.0851215,0.11180952,0.07663057
0.20067108,0.17786142,0.23443368,-0.18386722,-0.15120463,0.21614882,0.026549656,0.390643,0.25126842,0.32498354,0.19688453,0.1509306
0.31277204,0.21505639,0.2620088,-0.2525327,-0.1405335,0.28337997,0.028226178,0.39589992,0.31097987,0.39272577,0.2611922,0.20204704
0.3936206,0.2733303,0.32943377,-0.3714553,-0.13480163,0.35354432,0.010688405,0.39378098,0.36368382,0.39221695,0.2621395,0.25253808
0.30878332,0.20461197,0.24827267,-0.23792437,-0.05744542,0.24335006,0.06334022,0.22548194,0.23610546,0.21935013,0.18036652,0.20629895
0.17072156,0.11241435,0.11688922,-0.118470676,-0.028701795,0.13485397,0.102515824,0.10307971,0.09672911,0.046651777,0.078246444,0.11627547
-0.023569867,-0.009682114,-0.030277114,0.031582788,-0.053166606,-0.035854936,0.12838486,-0.03450939,-0.056880407,-0.05933923,0.0064297924,-0.013977065
-0.106339,-0.05486998,-0.066630855,0.07643944,-0.06051139,-0.08722849,0.1199635,-0.07747095,-0.08772197,-0.08631374,-0.051999416,-0.072786815
-0.19197795,-0.08946237,-0.056571458,0.13399264,-0.09010747,-0.12764627,0.10355163,-0.12243561,-0.111169584,-0.1114731,-0.07138398,-0.106621735
-0.15071811,-0.07030928,-0.03458265,0.1266091,-0.099339604,-0.09491976,0.08365656,-0.103504166,-0.075054206,-0.07796144,-0.07943554,-0.09140254
-0.192956,-0.10459291,-0.04090996,0.1430151,-0.08238264,-0.08249388,0.08117401,-0.105380155,-0.083905995,-0.082564324,-0.0815923,-0.090622984
-0.14220944,-0.093745306,-0.031478252,0.10344195,-0.07949448,-0.055811286,0.062958926,-0.08776748,-0.060189303,-0.07001352,-0.081757486,-0.08235251
-0.14633058,-0.09522909,-0.038136605,0.10712371,-0.10891072,-0.06524214,0.05662404,-0.109107375,-0.08107779,-0.092788585,-0.07833297,-0.09659306
-0.0968789,-0.06268253,-0.031704586,0.07709461,-0.11143525,-0.05650619,0.025667334,-0.097162135,-0.06922825,-0.07326843,-0.057032764,-0.088264436
-0.13063481,-0.093999945,-0.044374008,0.097083576,-0.08394766,-0.07962818,0.0036896598,-0.13613585,-0.101466395,-0.08956371,-0.05076633,-0.10158538
-0.10138806,-0.08480965,-0.055029,0.08464686,-0.061565373,-0.08061307,-0.009191671,-0.12744315,-0.08987831,-0.070635065,-0.05046024,-0.09070184
-0.13507596,-0.11610759,-0.07052155,0.09638925,-0.050026733,-0.08880761,-0.010188346,-0.13594823,-0.10743892,-0.09675437,-0.059405662,-0.084528916
-0.10880129,-0.10232511,-0.073293746,0.105181105,-0.045617636,-0.098555274,-0.001639156,-0.106600344,-0.088377744,-0.08817661,-0.060481727,-0.097410046
-0.1291859,-0.10668072,-0.08011118,0.12293603,-0.04017413,-0.10982837,0.015757807,-0.14472815,-0.11680109,-0.11324796,-0.0723156,-0.11946068
-0.09900745,-0.08549433,-0.07880811,0.11058048,-0.043125182,-0.1062239,0.0014389445,-0.14257471,-0.10048781,-0.08671176,-0.07838755,-0.1134296
-0.124786004,-0.11688229,-0.0738004,0.12780762,-0.021360276,-0.12010728,-0.0026084424,-0.17511599,-0.13118508,-0.10875505,-0.08124341,-0.13079984
-0.11254818,-0.10936562,-0.06552527,0.10604071,-0.037735,-0.13244508,-0.015683677,-0.12020732,-0.091730215,-0.09004138,-0.067632094,-0.10745407
-0.14469336,-0.1287405,-0.07591713,0.14253196,-0.021429803,-0.12883675,-0.0030167012,-0.16035645,-0.10184811,-0.11571696,-0.08385261,-0.11854437
-0.11966238,-0.11625324,-0.06320714,0.12899996,-0.01982158,-0.12300947,-0.011338791,-0.12720713,-0.06761539,-0.08049351,-0.068790756,-0.100862525
-0.12068352,-0.09484333,-0.033794075,0.12412396,-0.053798866,-0.106653854,0.0078748325,-0.13743688,-0.07581099,-0.09835824,-0.08269228,-0.10874445
-0.067474835,-0.010916008,0.034894686,0.033889275,-0.0838574,-0.033965718,0.0033478313,-0.07529071,-0.07660636,-0.061252054,-0.0637194,-0.069324575
-0.041679185,-0.011603848,0.059022855,0.03616957,-0.068139926,-0.010755959,-0.03263027,-0.110821016,-0.09014537,-0.075594805,-0.043791194,-0.05422968
-0.028041698,-0.008953034,0.046217244,-0.013304909,-0.018752046,-0.016483989,-0.0733029,-0.08926381,-0.074151926,-0.05134498,-0.032850124,-0.016391717
-0.09589523,-0.10797097,-0.0133830365,0.08170195,0.054879516,-0.089097895,-0.07496299,-0.119050205,-0.06356366,-0.07915912,-0.048681106,-0.04599896
-0.11334623,-0.119593404,-0.07061223,0.10219969,0.08344486,-0.10892062,-0.046595246,-0.09492945,-0.06617796,-0.06735468,-0.05161671,-0.02958242
-0.17764904,-0.20328856,-0.115473844,0.18860164,0.06282202,-0.12668984,-0.0348106,-0.15446399,-0.10963799,-0.13551341,-0.084117875,-0.1062285
-0.11523319,-0.11947566,-0.13685784,0.086974464,0.08146012,-0.086756065,-0.028957732,-0.08127328,-0.043495018,-0.03639672,-0.049470272,-0.071192056
-0.23344706,-0.23090678,-0.18479517,0.28589407,0.073082864,-0.18939368,0.21745765,-0.080422565,-0.15093671,-0.14589618,-0.115198426,-0.18599474
0.39665735,0.28538316,0.30747342,-0.31420118,0.15929392,0.32735112,0.37394354,0.5308524,0.43066016,0.39126387,0.3936902,0.2494319
0.55559015,0.5636859,0.41764417,-0.90898466,-0.4021496,0.5551423,-0.5745363,0.063225545,0.53659964,0.56212306,0.44612345,0.5587959
-0.055778097,-0.051549982,-0.244699,0.10719689,0.031004412,-0.12370469,-0.23614106,-0.40031356,-0.20208736,-0.09721893,0.003686173,-0.03292824
-0.03343739,-0.13077566,-0.16210715,0.13467844,0.14603595,-0.14403078,0.22748436,-0.0033805242,-0.042486735,-0.055573903,-0.0954279,-0.068580545
-0.051139913,-0.10355588,-0.07562817,0.13039228,-0.031373423,-0.09045616,-0.025653781,-0.14674124,-0.0915279,-0.07960946,-0.032252952,-0.06459831
-0.03848597,-0.09374365,-0.06847545,0.06982541,0.020087073,-0.101846874,0.066023305,-0.012258214,-0.035611734,-0.051139172,-0.0681078,-0.06755202
-0.06361659,-0.10540597,-0.06674066,0.100291245,0.018037539,-0.106747895,-0.02803461,-0.07852057,-0.09400088,-0.07228714,-0.08144798,-0.08813894
-0.03815523,-0.07044528,-0.062076814,0.042240117,0.035887707,-0.090423286,0.06641554,0.037426952,-0.043806188,-0.027552126,-0.050307743,-0.060246732
-0.07491234,-0.0559393,-0.04511448,0.03769765,0.040743582,-0.08388282,0.02063357,-0.0025034198,-0.062019665,-0.03147465,-0.043960977,-0.036700714
-0.00015872717,-0.022812849,-0.026755264,-0.0572737,0.030859146,-0.036418717,0.07079427,0.15329824,0.0055316123,0.01987863,-0.010445483,-0.0046697217
-0.013126304,0.020097947,0.014872735,-0.093184546,0.017655475,0.012444241,-0.0053407936,0.16890088,0.050420586,0.049193043,0.04065593,0.045143537
0.08132068,0.12411035,0.07546128,-0.22382563,0.031519517,0.09997302,0.031047078,0.31728652,0.32009232,0.14031225,0.10349373,0.11642105
0.24265724,0.19234419,0.14065935,-0.30993506,0.037914183,0.17036945,-0.054635365,0.2958764,0.39148277,0.17639391,0.16320728,0.18299368
0.3518161,0.258774,0.21903428,-0.3880648,0.048671916,0.23396689,0.0018315592,0.29867905,0.39257264,0.2094666,0.18880688,0.26947445
0.3956269,0.24067375,0.20823196,-0.30765873,0.07004846,0.23212458,-0.04871901,0.20690316,0.39066482,0.14588413,0.16210178,0.30342433
0.1521086,0.097234815,0.107415974,-0.17595477,0.09080674,0.117666915,0.025488548,0.12564036,0.2213712,0.051641323,0.085076235,0.19311176
0.0148825385,-0.049888823,-0.00011134148,-0.025168259,0.10540196,-0.018128347,-0.034944277,-0.015455505,0.03298141,-0.061066546,0.0042299377,0.080692686
-0.09020372,-0.11816454,-0.07243958,0.06564735,0.09030703,-0.13174371,0.0068468573,-0.077043146,-0.032353967,-0.082368374,-0.045571152,-0.013408543
-0.08848863,-0.1497771,-0.12881775,0.1108881,0.10775123,-0.17225543,-0.055794023,-0.12671365,-0.05739766,-0.115736306,-0.066096954,-0.07156503
-0.08765638,-0.12712668,-0.12937662,0.12404532,0.12904805,-0.18409526,-0.013646381,-0.101926036,-0.05504513,-0.08482936,-0.06495419,-0.10289501
-0.095342964,-0.121786565,-0.13840558,0.0791789,0.16186428,-0.15322092,-0.07516136,-0.14173515,-0.083245866,-0.1045395,-0.06971506,-0.12350524
-0.10086412,-0.12814087,-0.115852326,0.09153934,0.11857881,-0.16194059,-0.025933322,-0.13080038,-0.07428325,-0.09345982,-0.062381078,-0.12490371
-0.10799895,-0.12308502,-0.11790006,0.08403703,0.12051139,-0.15064453,-0.07530689,-0.1562786,-0.10672492,-0.09814243,-0.0448239,-0.11590737
-0.102417946,-0.12031059,-0.10462321,0.09920953,0.033440575,-0.1555542,-0.02698815,-0.11848384,-0.0924202,-0.0753349,-0.038792178,-0.10171333
-0.13052784,-0.12837513,-0.10732209,0.10195408,0.1006391,-0.14542882,-0.09163494,-0.15244372,-0.1121059,-0.10069869,-0.051273674,-0.1190049
-0.09675945,-0.10509634,-0.12998965,0.1029564,0.10990062,-0.1299845,-0.026034461,-0.1275117,-0.106502,-0.086217806,-0.052479915,-0.110874645
-0.11043756,-0.109919995,-0.13560762,0.0936646,0.08269453,-0.13979052,-0.076987185,-0.17036675,-0.12784532,-0.103802115,-0.06709465,-0.121226095
-0.08815893,-0.13564757,-0.13554454,0.09532398,0.099095866,-0.14155419,-0.02771091,-0.13739045,-0.091904856,-0.085271,-0.07886254,-0.11898692
-0.1234142,-0.15867876,-0.13104373,0.121862486,0.16647182,-0.1670744,-0.08398456,-0.17512032,-0.11743241,-0.1089364,-0.10395152,-0.15234655
-0.103654236,-0.1623754,-0.14315386,0.107085355,0.16110273,-0.1705858,-0.040106617,-0.11861066,-0.08618329,-0.08646161,-0.10175279,-0.13896531
-0.12936483,-0.15501547,-0.13790615,0.10487001,0.21847339,-0.16093096,-0.09878199,-0.16864167,-0.115368396,-0.10701034,-0.10209526,-0.14419636
-0.08934074,-0.14399932,-0.15121162,0.09791734,0.20723711,-0.17510784,-0.0643862,-0.14765005,-0.10789916,-0.08728477,-0.068648055,-0.13003466
-0.12358295,-0.14723466,-0.14105587,0.09968862,0.17921004,-0.16848102,-0.1213829,-0.20019667,-0.12781613,-0.0980589,-0.06043692,-0.12807667
-0.107283615,-0.15519801,-0.15164648,0.093244754,0.14977264,-0.18026519,-0.04084528,-0.15843807,-0.10017426,-0.07785187,-0.04750946,-0.123316534
-0.11211308,-0.14592756,-0.11812916,0.108688846,0.14879899,-0.14865386,-0.06854581,-0.16905396,-0.11041872,-0.07856835,-0.03906999,-0.11821649
-0.05660877,-0.10557714,-0.06315306,0.095528424,0.1744842,-0.10798022,0.038673177,-0.120137475,-0.07013784,-0.05762433,-0.049596354,-0.08526798
-0.014088056,-0.05387705,-0.041760374,0.048702035,0.17220913,-0.097095475,-0.047330156,-0.17629069,-0.08291717,-0.06641574,-0.039423022,-0.07202598
0.050803605,-0.04747226,-0.106570765,-0.014226937,0.18563026,-0.11033917,-0.014633862,-0.12284551,-0.058445707,-0.066954724,-0.032060362,-0.06696484
0.015348123,-0.079992115,-0.15561348,0.025559997,0.16392945,-0.12634808,-0.1298782,-0.19714858,-0.09175634,-0.08455892,-0.053082176,-0.095777534
-0.018412,-0.11766994,-0.22573921,0.032315563,0.23414648,-0.17058666,-0.097774185,-0.110007614,-0.06057431,-0.086910605,-0.08636296,-0.1270067
-0.08823859,-0.14866906,-0.21423711,0.10454819,0.17457385,-0.19166787,-0.1601712,-0.15542457,-0.10675373,-0.10665862,-0.06251597,-0.13687076
0.008609559,-0.08604222,-0.2134532,0.07326817,0.26774633,-0.17945696,-0.027611447,-0.03624469,-0.035938572,-0.06365205,-0.05018408,-0.08246064
-0.08348127,-0.1951507,-0.25911823,0.16159414,0.21921095,-0.2554618,-0.07428571,-0.17759523,-0.20833194,-0.15299729,-0.20487912,-0.1602169
0.40603617,0.097040124,-0.114103235,-0.120383136,0.34137514,0.027074276,0.49205256,0.5221798,0.39714128,0.1511262,0.39344236,0.39281693
0.43048367,0.55878067,0.51416004,-0.90633404,-0.4509616,0.53718084,-0.60504943,0.3916073,0.5504271,0.5630982,0.43286532,0.4151694
-0.16416234,-0.057687685,-0.08826461,0.04214855,0.12657684,-0.07145598,-0.5123317,-0.3585104,-0.10537402,-0.026947143,-0.02878967,-0.13159612
-0.08551144,-0.21696833,-0.3224943,0.17791556,0.39029995,-0.21342494,0.21758702,-0.08600027,-0.048502594,-0.10611506,-0.08459436,-0.10244944
-0.07451116,-0.0940205,-0.15635669,0.11188454,0.10406932,-0.13629572,0.004963685,-0.1319671,-0.1119647,-0.061451454,-0.0518643,-0.10359898
-0.01774405,-0.13962097,-0.18553275,0.13039419,0.102607004,-0.19312854,0.09551056,-0.02312677,-0.08002259,-0.09742067,-0.020458167,-0.059320666
-0.02120889,-0.10269491,-0.15762003,0.1112168,0.145221,-0.16149224,0.030534102,-0.054056175,-0.07725262,-0.06418396,-0.04576042,-0.06794978
-0.008492504,-0.0973072,-0.1685441,0.08274639,0.18363628,-0.16533977,0.09704429,0.016786935,-0.019826317,-0.05515777,-0.04266124,-0.04742195
0.04582674,-0.0761502,-0.15321992,0.0450497,0.19060576,-0.12388892,0.026673099,0.016852481,-0.014033559,-0.015916612,-0.017368477,-0.039718434
0.08253014,-0.057331093,-0.13841552,0.047975816,0.20536828,-0.108769655,0.04941099,0.09605235,0.045939453,0.019592997,0.0069822427,-0.032577902
0.13809969,-0.011976802,-0.099172115,-0.03514987,0.2071226,-0.028455084,-0.040466312,0.14606677,0.117450394,0.088455185,0.043422528,0.015682872
0.18705758,0.05681116,-0.04702572,-0.11268635,0.25771004,0.019645816,-0.056145214,0.28703174,0.21081561,0.13387382,0.099966146,0.07894064
0.23584345,0.16106196,0.012223827,-0.20852494,0.34148118,0.123941645,-0.10624907,0.39369342,0.2643301,0.21432206,0.13953924,0.14691512
0.38654613,0.2055329,0.024588129,-0.265791,0.39027208,0.15825114,-0.073805526,0.3970216,0.2830548,0.2402417,0.1507031,0.19460945
0.39247608,0.16703193,-0.008272101,-0.25512087,0.392386,0.096770026,-0.036551546,0.2794974,0.22790721,0.22085035,0.12862587,0.2025337
0.28728467,0.07611699,-0.05513017,-0.16120946,0.39260903,0.008822838,0.04867623,0.103488244,0.12648189,0.100839846,0.06581133,0.16020526
0.11372239,-0.03612412,-0.09633176,-0.054453548,0.34675282,-0.08155751,0.062201325,-0.034571692,0.02278762,-0.0030117838,0.010300779,0.07879931
0.017028563,-0.09829792,-0.10680488,0.065698095,0.2622332,-0.11922942,0.066291064,-0.0778048,-0.06119618,-0.050659645,-0.040634837,-0.00027355552
-0.03721071,-0.1417925,-0.118984155,0.08008015,0.19344282,-0.1566298,0.018370379,-0.13618475,-0.10691247,-0.08894403,-0.08561025,-0.044868395
-0.044319633,-0.115502834,-0.1262801,0.06505263,0.18519469,-0.14127393,0.021663584,-0.09806746,-0.09209735,-0.09631121,-0.086967364,-0.03870707
-0.055047687,-0.15889756,-0.15252343,0.105209365,0.19232197,-0.16005562,0.02888329,-0.114025645,-0.11684571,-0.095224135,-0.077231444,-0.05076752
-0.04220528,-0.12946816,-0.11482871,0.0842584,0.19863807,-0.14503963,0.035240088,-0.10109386,-0.10577317,-0.084679045,-0.075152144,-0.047746535
-0.06479528,-0.15053466,-0.108079895,0.064690396,0.16969213,-0.15651147,0.015250811,-0.12972754,-0.109983355,-0.09114087,-0.08879602,-0.047864076
